#Parameters = {a=0.5; d=0.035; h=9; p=3; phi=0; r_1=2; r_2=2.7; s=0.2; t=0.2; theta=0; w=12}
#"Wavelength / nm"	"A_Zmax(1) [Mag]"	"A_Zmax(1) [Pha / deg]"
#-----------------------------------------------------------
23605705.354331	0.85857558567814	0.0000000000000
23624307.171001	0.85988220448837	0.0000000000000
23642938.328076	0.86117538617156	0.0000000000000
23661598.895028	0.86245521839853	0.0000000000000
23680288.941548	0.86372178913694	0.0000000000000
23699008.537549	0.86497518661830	0.0000000000000
23717757.753165	0.86621549930591	0.0000000000000
23736536.658749	0.86744281586394	0.0000000000000
23755345.324881	0.86865722512738	0.0000000000000
23774183.822363	0.86985881607312	0.0000000000000
23793052.222222	0.87104767779183	0.0000000000000
23811950.595711	0.87222389946090	0.0000000000000
23830879.014308	0.87338757031825	0.0000000000000
23849837.549722	0.87453877963699	0.0000000000000
23868826.273885	0.87567761670105	0.0000000000000
23887845.258964	0.87680417078153	0.0000000000000
23906894.577352	0.87791853111405	0.0000000000000
23925974.301676	0.87902078687671	0.0000000000000
23945084.504792	0.88011102716902	0.0000000000000
23964225.259792	0.88118934099152	0.0000000000000
23983396.640000	0.88225581722611	0.0000000000000
24002598.718975	0.88331054461721	0.0000000000000
24021831.570513	0.88435361175357	0.0000000000000
24041095.268645	0.88538510705075	0.0000000000000
24060389.887640	0.88640511873441	0.0000000000000
24079715.502008	0.88741373482406	0.0000000000000
24099072.186495	0.88841104311763	0.0000000000000
24118460.016090	0.88939713117659	0.0000000000000
24137879.066023	0.89037208631162	0.0000000000000
24157329.411765	0.89133599556903	0.0000000000000
24176811.129032	0.89228894571757	0.0000000000000
24196324.293785	0.89323102323594	0.0000000000000
24215868.982229	0.89416231430079	0.0000000000000
24235445.270816	0.89508290477522	0.0000000000000
24255053.236246	0.89599288019785	0.0000000000000
24274692.955466	0.89689232577236	0.0000000000000
24294364.505673	0.89778132635753	0.0000000000000
24314067.964315	0.89865996645770	0.0000000000000
24333803.409091	0.89952833021377	0.0000000000000
24353570.917953	0.90038650139455	0.0000000000000
24373370.569106	0.90123456338865	0.0000000000000
24393202.441009	0.90207259919668	0.0000000000000
24413066.612378	0.90290069142390	0.0000000000000
24432963.162184	0.90371892227329	0.0000000000000
24452892.169657	0.90452737353896	0.0000000000000
24472853.714286	0.90532612659992	0.0000000000000
24492847.875817	0.90611526241428	0.0000000000000
24512874.734260	0.90689486151368	0.0000000000000
24532934.369885	0.90766500399817	0.0000000000000
24553026.863227	0.90842576953136	0.0000000000000
24573152.295082	0.90917723733583	0.0000000000000
24593310.746514	0.90991948618898	0.0000000000000
24613502.298851	0.91065259441905	0.0000000000000
24633727.033689	0.91137663990147	0.0000000000000
24653985.032895	0.91209170005549	0.0000000000000
24674276.378601	0.91279785184106	0.0000000000000
24694601.153213	0.91349517175601	0.0000000000000
24714959.439406	0.91418373583338	0.0000000000000
24735351.320132	0.91486361963911	0.0000000000000
24755776.878613	0.91553489826988	0.0000000000000
24776236.198347	0.91619764635119	0.0000000000000
24796729.363110	0.91685193803565	0.0000000000000
24817256.456954	0.91749784700154	0.0000000000000
24837817.564209	0.91813544645144	0.0000000000000
24858412.769486	0.91876480911122	0.0000000000000
24879042.157676	0.91938600722903	0.0000000000000
24899705.813953	0.91999911257465	0.0000000000000
24920403.823774	0.92060419643887	0.0000000000000
24941136.272879	0.92120132963313	0.0000000000000
24961903.247294	0.92179058248925	0.0000000000000
24982704.833333	0.92237202485937	0.0000000000000
25003541.117598	0.92294572611601	0.0000000000000
25024412.186978	0.92351175515225	0.0000000000000
25045318.128655	0.92407018038212	0.0000000000000
25066259.030100	0.92462106974100	0.0000000000000
25087234.979079	0.92516449068628	0.0000000000000
25108246.063652	0.92570051019805	0.0000000000000
25129292.372171	0.92622919477993	0.0000000000000
25150373.993289	0.92675061046001	0.0000000000000
25171491.015953	0.92726482279191	0.0000000000000
25192643.529412	0.92777189685589	0.0000000000000
25213831.623213	0.92827189726016	0.0000000000000
25235055.387205	0.92876488814214	0.0000000000000
25256314.911542	0.92925093316997	0.0000000000000
25277610.286678	0.92973009554392	0.0000000000000
25298941.603376	0.93020243799807	0.0000000000000
25320308.952703	0.93066802280192	0.0000000000000
25341712.426035	0.93112691176214	0.0000000000000
25363152.115059	0.93157916622439	0.0000000000000
25384628.111770	0.93202484707519	0.0000000000000
25406140.508475	0.93246401474383	0.0000000000000
25427689.397795	0.93289672920441	0.0000000000000
25449274.872666	0.93332304997785	0.0000000000000
25470897.026338	0.93374303613402	0.0000000000000
25492555.952381	0.93415674629387	0.0000000000000
25514251.744681	0.93456423863167	0.0000000000000
25535984.497445	0.93496557087721	0.0000000000000
25557754.305200	0.93536080031813	0.0000000000000
25579561.262799	0.93574998380221	0.0000000000000
25601405.465414	0.93613317773978	0.0000000000000
25623287.008547	0.93651043810608	0.0000000000000
25645205.988024	0.93688182044370	0.0000000000000
25667162.500000	0.93724737986507	0.0000000000000
25689156.640960	0.93760717105491	0.0000000000000
25711188.507719	0.93796124827278	0.0000000000000
25733258.197425	0.93830966535559	0.0000000000000
25755365.807560	0.93865247572020	0.0000000000000
25777511.435942	0.93898973236598	0.0000000000000
25799695.180723	0.93932148787739	0.0000000000000
25821917.140396	0.93964779442665	0.0000000000000
25844177.413793	0.93996870377633	0.0000000000000
25866476.100086	0.94028426728201	0.0000000000000
25888813.298791	0.94059453589495	0.0000000000000
25911189.109767	0.94089956016475	0.0000000000000
25933603.633218	0.94119939024202	0.0000000000000
25956056.969697	0.94149407588108	0.0000000000000
25978549.220104	0.94178366644265	0.0000000000000
26001080.485690	0.94206821089653	0.0000000000000
26023650.868056	0.94234775782435	0.0000000000000
26046260.469157	0.94262235542220	0.0000000000000
26068909.391304	0.94289205150342	0.0000000000000
26091597.737163	0.94315689350123	0.0000000000000
26114325.609756	0.94341692847151	0.0000000000000
26137093.112467	0.94367220309544	0.0000000000000
26159900.349040	0.94392276368225	0.0000000000000
26182747.423581	0.94416865617189	0.0000000000000
26205634.440559	0.94440992613774	0.0000000000000
26228561.504812	0.94464661878933	0.0000000000000
26251528.721541	0.94487877897495	0.0000000000000
26274536.196319	0.94510645118443	0.0000000000000
26297584.035088	0.94532967955171	0.0000000000000
26320672.344162	0.94554850785759	0.0000000000000
26343801.230228	0.94576297953234	0.0000000000000
26366970.800352	0.94597313765837	0.0000000000000
26390181.161972	0.94617902497284	0.0000000000000
26413432.422907	0.94638068387033	0.0000000000000
26436724.691358	0.94657815640542	0.0000000000000
26460058.075905	0.94677148429531	0.0000000000000
26483432.685512	0.94696070892244	0.0000000000000
26506848.629531	0.94714587133702	0.0000000000000
26530306.017699	0.94732701225966	0.0000000000000
26553804.960142	0.94750417208389	0.0000000000000
26577345.567376	0.94767739087870	0.0000000000000
26600927.950311	0.94784670839110	0.0000000000000
26624552.220249	0.94801216404863	0.0000000000000
26648218.488889	0.94817379696185	0.0000000000000
26671926.868327	0.94833164592684	0.0000000000000
26695677.471060	0.94848574942767	0.0000000000000
26719470.409982	0.94863614563885	0.0000000000000
26743305.798394	0.94878287242781	0.0000000000000
26767183.750000	0.94892596735727	0.0000000000000
26791104.378910	0.94906546768773	0.0000000000000
26815067.799642	0.94920141037979	0.0000000000000
26839074.127126	0.94933383209657	0.0000000000000
26863123.476703	0.94946276920610	0.0000000000000
26887215.964126	0.94958825778362	0.0000000000000
26911351.705566	0.94971033361393	0.0000000000000
26935530.817610	0.94982903219372	0.0000000000000
26959753.417266	0.94994438873388	0.0000000000000
26984019.621962	0.95005643816173	0.0000000000000
27008329.549550	0.95016521512334	0.0000000000000
27032683.318305	0.95027075398579	0.0000000000000
27057081.046931	0.95037308883932	0.0000000000000
27081522.854562	0.95047225349966	0.0000000000000
27106008.860759	0.95056828151013	0.0000000000000
27130539.185520	0.95066120614388	0.0000000000000
27155113.949275	0.95075106040606	0.0000000000000
27179733.272892	0.95083787703592	0.0000000000000
27204397.277677	0.95092168850900	0.0000000000000
27229106.085377	0.95100252703920	0.0000000000000
27253859.818182	0.95108042458090	0.0000000000000
27278658.598726	0.95115541283106	0.0000000000000
27303502.550091	0.95122752323122	0.0000000000000
27328391.795807	0.95129678696965	0.0000000000000
27353326.459854	0.95136323498327	0.0000000000000
27378306.666667	0.95142689795976	0.0000000000000
27403332.541133	0.95148780633949	0.0000000000000
27428404.208600	0.95154599031755	0.0000000000000
27453521.794872	0.95160147984568	0.0000000000000
27478685.426214	0.95165430463424	0.0000000000000
27503895.229358	0.95170449415415	0.0000000000000
27529151.331497	0.95175207763879	0.0000000000000
27554453.860294	0.95179708408588	0.0000000000000
27579802.943882	0.95183954225943	0.0000000000000
27605198.710866	0.95187948069155	0.0000000000000
27630641.290323	0.95191692768433	0.0000000000000
27656130.811808	0.95195191131166	0.0000000000000
27681667.405355	0.95198445942107	0.0000000000000
27707251.201479	0.95201459963554	0.0000000000000
27732882.331175	0.95204235935526	0.0000000000000
27758560.925926	0.95206776575945	0.0000000000000
27784287.117702	0.95209084580809	0.0000000000000
27810061.038961	0.95211162624367	0.0000000000000
27835882.822656	0.95213013359292	0.0000000000000
27861752.602230	0.95214639416856	0.0000000000000
27887670.511628	0.95216043407094	0.0000000000000
27913636.685289	0.95217227918980	0.0000000000000
27939651.258155	0.95218195520586	0.0000000000000
27965714.365672	0.95218948759257	0.0000000000000
27991826.143791	0.95219490161768	0.0000000000000
28017986.728972	0.95219822234490	0.0000000000000
28044196.258185	0.95219947463554	0.0000000000000
28070454.868914	0.95219868315008	0.0000000000000
28096762.699157	0.95219587234975	0.0000000000000
28123119.887430	0.95219106649816	0.0000000000000
28149526.572770	0.95218428966282	0.0000000000000
28175982.894737	0.95217556571668	0.0000000000000
28202488.993415	0.95216491833973	0.0000000000000
28229045.009416	0.95215237102044	0.0000000000000
28255651.083883	0.95213794705734	0.0000000000000
28282307.358491	0.95212166956050	0.0000000000000
28309013.975449	0.95210356145298	0.0000000000000
28335771.077505	0.95208364547236	0.0000000000000
28362578.807947	0.95206194417216	0.0000000000000
28389437.310606	0.95203847992333	0.0000000000000
28416346.729858	0.95201327491564	0.0000000000000
28443307.210626	0.95198635115914	0.0000000000000
28470318.898386	0.95195773048558	0.0000000000000
28497381.939163	0.95192743454977	0.0000000000000
28524496.479543	0.95189548483103	0.0000000000000
28551662.666667	0.95186190263452	0.0000000000000
28578880.648236	0.95182670909266	0.0000000000000
28606150.572519	0.95178992516642	0.0000000000000
28633472.588348	0.95175157164674	0.0000000000000
28660846.845124	0.95171166915582	0.0000000000000
28688273.492823	0.95167023814848	0.0000000000000
28715752.681992	0.95162729891342	0.0000000000000
28743284.563758	0.95158287157461	0.0000000000000
28770869.289827	0.95153697609249	0.0000000000000
28798507.012488	0.95148963226534	0.0000000000000
28826197.884615	0.95144085973050	0.0000000000000
28853942.059673	0.95139067796567	0.0000000000000
28881739.691715	0.95133910629012	0.0000000000000
28909590.935391	0.95128616386601	0.0000000000000
28937495.945946	0.95123186969953	0.0000000000000
28965454.879227	0.95117624264222	0.0000000000000
28993467.891683	0.95111930139214	0.0000000000000
29021535.140368	0.95106106449507	0.0000000000000
29049656.782946	0.95100155034573	0.0000000000000
29077832.977692	0.95094077718899	0.0000000000000
29106063.883495	0.95087876312099	0.0000000000000
29134349.659864	0.95081552609038	0.0000000000000
29162690.466926	0.95075108389944	0.0000000000000
29191086.465433	0.95068545420526	0.0000000000000
29219537.816764	0.95061865452089	0.0000000000000
29248044.682927	0.95055070221643	0.0000000000000
29276607.226562	0.95048161452024	0.0000000000000
29305225.610948	0.95041140852001	0.0000000000000
29333900.000000	0.95034010116387	0.0000000000000
29362630.558276	0.95026770926154	0.0000000000000
29391417.450980	0.95019424948539	0.0000000000000
29420260.843965	0.95011973837154	0.0000000000000
29449160.903733	0.95004419232095	0.0000000000000
29478117.797443	0.94996762760051	0.0000000000000
29507131.692913	0.94989006034408	0.0000000000000
29536202.758621	0.94981150655355	0.0000000000000
29565331.163708	0.94973198209994	0.0000000000000
29594517.077986	0.94965150272439	0.0000000000000
29623760.671937	0.94957008403923	0.0000000000000
29653062.116716	0.94948774152903	0.0000000000000
29682421.584158	0.94940449055156	0.0000000000000
29711839.246779	0.94932034633889	0.0000000000000
29741315.277778	0.94923532399834	0.0000000000000
29770849.851043	0.94914943851353	0.0000000000000
29800443.141153	0.94906270474533	0.0000000000000
29830095.323383	0.94897513743291	0.0000000000000
29859806.573705	0.94888675119467	0.0000000000000
29889577.068794	0.94879756052926	0.0000000000000
29919406.986028	0.94870757981652	0.0000000000000
29949296.503496	0.94861682331848	0.0000000000000
29979245.800000	0.94852530518029	0.0000000000000
30009255.055055	0.94843303943120	0.0000000000000
30039324.448898	0.94834003998547	0.0000000000000
30069454.162487	0.94824632064336	0.0000000000000
30099644.377510	0.94815189509204	0.0000000000000
30129895.276382	0.94805677690651	0.0000000000000
30160207.042254	0.94796097955053	0.0000000000000
30190579.859013	0.94786451637757	0.0000000000000
30221013.911290	0.94776740063168	0.0000000000000
30251509.384460	0.94766964544840	0.0000000000000
30282066.464646	0.94757126385569	0.0000000000000
30312685.338726	0.94747226877481	0.0000000000000
30343366.194332	0.94737267302120	0.0000000000000
30374109.219858	0.94727248930538	0.0000000000000
30404914.604462	0.94717173023383	0.0000000000000
30435782.538071	0.94707040830983	0.0000000000000
30466713.211382	0.94696853593438	0.0000000000000
30497706.815870	0.94686612540704	0.0000000000000
30528763.543788	0.94676318892675	0.0000000000000
30559883.588175	0.94665973859275	0.0000000000000
30591067.142857	0.94655578640539	0.0000000000000
30622314.402451	0.94645134426698	0.0000000000000
30653625.562372	0.94634642398261	0.0000000000000
30685000.818833	0.94624103726100	0.0000000000000
30716440.368852	0.94613519571533	0.0000000000000
30747944.410256	0.94602891086407	0.0000000000000
30779513.141684	0.94592219413175	0.0000000000000
30811146.762590	0.94581505684984	0.0000000000000
30842845.473251	0.94570751025749	0.0000000000000
30874609.474768	0.94559956550241	0.0000000000000
30906438.969072	0.94549123364157	0.0000000000000
30938334.158927	0.94538252564210	0.0000000000000
30970295.247934	0.94527345238200	0.0000000000000
31002322.440538	0.94516402465094	0.0000000000000
31034415.942029	0.94505425315109	0.0000000000000
31066575.958549	0.94494414849780	0.0000000000000
31098802.697095	0.94483372122048	0.0000000000000
31131096.365524	0.94472298176327	0.0000000000000
31163457.172557	0.94461194048586	0.0000000000000
31195885.327784	0.94450060766423	0.0000000000000
31228381.041667	0.94438899349139	0.0000000000000
31260944.525547	0.94427710807815	0.0000000000000
31293575.991649	0.94416496145384	0.0000000000000
31326275.653083	0.94405256356708	0.0000000000000
31359043.723849	0.94393992428647	0.0000000000000
31391880.418848	0.94382705340136	0.0000000000000
31424785.953878	0.94371396062257	0.0000000000000
31457760.545645	0.94360065558309	0.0000000000000
31490804.411765	0.94348714783882	0.0000000000000
31523917.770768	0.94337344686927	0.0000000000000
31557100.842105	0.94325956207828	0.0000000000000
31590353.846154	0.94314550279471	0.0000000000000
31623677.004219	0.94303127827315	0.0000000000000
31657070.538543	0.94291689769463	0.0000000000000
31690534.672304	0.94280237016728	0.0000000000000
31724069.629630	0.94268770472705	0.0000000000000
31757675.635593	0.94257291033839	0.0000000000000
31791352.916225	0.94245799589489	0.0000000000000
31825101.698514	0.94234297022003	0.0000000000000
31858922.210414	0.94222784206776	0.0000000000000
31892814.680851	0.94211262012327	0.0000000000000
31926779.339723	0.94199731300357	0.0000000000000
31960816.417910	0.94188192925819	0.0000000000000
31994926.147279	0.94176647736984	0.0000000000000
32029108.760684	0.94165096575502	0.0000000000000
32063364.491979	0.94153540276474	0.0000000000000
32097693.576017	0.94141979668511	0.0000000000000
32132096.248660	0.94130415573797	0.0000000000000
32166572.746781	0.94118848808158	0.0000000000000
32201123.308271	0.94107280181122	0.0000000000000
32235748.172043	0.94095710495982	0.0000000000000
32270447.578041	0.94084140549857	0.0000000000000
32305221.767241	0.94072571133760	0.0000000000000
32340070.981661	0.94061003032651	0.0000000000000
32374995.464363	0.94049437025507	0.0000000000000
32409995.459459	0.94037873885376	0.0000000000000
32445071.212121	0.94026314379443	0.0000000000000
32480222.968581	0.94014759269087	0.0000000000000
32515450.976139	0.94003209309941	0.0000000000000
32550755.483170	0.93991665251954	0.0000000000000
32586136.739130	0.93980127839446	0.0000000000000
32621594.994559	0.93968597811172	0.0000000000000
32657130.501089	0.93957075900374	0.0000000000000
32692743.511450	0.93945562834846	0.0000000000000
32728434.279476	0.93934059336986	0.0000000000000
32764203.060109	0.93922566123855	0.0000000000000
32800050.109409	0.93911083907237	0.0000000000000
32835975.684556	0.93899613393689	0.0000000000000
32871980.043860	0.93888155284605	0.0000000000000
32908063.446762	0.93876710276264	0.0000000000000
32944226.153846	0.93865279059892	0.0000000000000
32980468.426843	0.93853862321714	0.0000000000000
33016790.528634	0.93842460743008	0.0000000000000
33053192.723264	0.93831075000162	0.0000000000000
33089675.275938	0.93819705764725	0.0000000000000
33126238.453039	0.93808353703462	0.0000000000000
33162882.522124	0.93797019478410	0.0000000000000
33199607.751938	0.93785703746926	0.0000000000000
33236414.412417	0.93774407161742	0.0000000000000
33273302.774695	0.93763130371020	0.0000000000000
33310273.111111	0.93751874018397	0.0000000000000
33347325.695217	0.93740638743046	0.0000000000000
33384460.801782	0.93729425179716	0.0000000000000
33421678.706800	0.93718233958794	0.0000000000000
33458979.687500	0.93707065706347	0.0000000000000
33496364.022346	0.93695921044177	0.0000000000000
33533831.991051	0.93684800589868	0.0000000000000
33571383.874580	0.93673704956839	0.0000000000000
33609019.955157	0.93662634754389	0.0000000000000
33646740.516274	0.93651590587747	0.0000000000000
33684545.842697	0.93640573058124	0.0000000000000
33722436.220472	0.93629582762755	0.0000000000000
33760411.936937	0.93618620294953	0.0000000000000
33798473.280722	0.93607686244151	0.0000000000000
33836620.541761	0.93596781195951	0.0000000000000
33874854.011299	0.93585905732175	0.0000000000000
33913173.981900	0.93575060430903	0.0000000000000
33951580.747452	0.93564245866527	0.0000000000000
33990074.603175	0.93553462609792	0.0000000000000
34028655.845630	0.93542711227844	0.0000000000000
34067324.772727	0.93531992284273	0.0000000000000
34106081.683732	0.93521306339158	0.0000000000000
34144926.879271	0.93510653949113	0.0000000000000
34183860.661345	0.93500035667332	0.0000000000000
34222883.333333	0.93489452043628	0.0000000000000
34261995.200000	0.93478903624481	0.0000000000000
34301196.567506	0.93468390953080	0.0000000000000
34340487.743414	0.93457914569363	0.0000000000000
34379869.036697	0.93447475010065	0.0000000000000
34419340.757750	0.93437072808754	0.0000000000000
34458903.218391	0.93426708495878	0.0000000000000
34498556.731876	0.93416382598803	0.0000000000000
34538301.612903	0.93406095641855	0.0000000000000
