freq	Re	Im
2.7000000000000	16.019509647203	28.342219250330
2.7100000000000	15.645747850905	28.291943986540
2.7200000000000	15.276548454640	28.231163823103
2.7300000000000	14.912325228375	28.160235437077
2.7400000000000	14.553462284117	28.079533001926
2.7500000000000	14.200313541560	27.989445529015
2.7600000000000	13.853202447584	27.890374247800
2.7700000000000	13.512421935617	27.782730049334
2.7800000000000	13.178234608673	27.666931014865
2.7900000000000	12.850873128135	27.543400048466
2.8000000000000	12.530540789094	27.412562629627
2.8100000000000	12.217412262225	27.274844698772
2.8200000000000	11.911634481805	27.130670685814
2.8300000000000	11.613327659429	26.980461689038
2.8400000000000	11.322586403315	26.824633809059
2.8500000000000	11.039480923709	26.663596640156
2.8600000000000	10.764058305725	26.497751919132
2.8700000000000	10.496343832046	26.327492329918
2.8800000000000	10.236342339080	26.153200460427
2.8900000000000	9.9840395915197	25.975247906748
2.9000000000000	9.7394036616145	25.793994518573
2.9100000000000	9.5023863009017	25.609787778764
2.9200000000000	9.2729242935724	25.422962309275
2.9300000000000	9.0509407820547	25.233839495043
2.9400000000000	8.8363465567636	25.042727217177
2.9500000000000	8.6290413032712	24.849919686535
2.9600000000000	8.4289148013812	24.655697368773
2.9700000000000	8.2358480717354	24.460326992012
2.9800000000000	8.0497144666341	24.264061628485
2.9900000000000	7.8703807027070	24.067140841779
3.0000000000000	7.6977078339347	23.869790891661
3.0100000000000	7.5315521642805	23.672224988854
3.0200000000000	7.3717660998650	23.474643592604
3.0300000000000	7.2181989411933	23.277234744325
3.0400000000000	7.0706976164398	23.080174431095
3.0500000000000	6.9291073572093	22.883626973306
3.0600000000000	6.7932723185339	22.687745431203
3.0700000000000	6.6630361451399	22.492672025585
3.0800000000000	6.5382424862289	22.298538568384
3.0900000000000	6.4187354611783	22.105466899284
3.1000000000000	6.3043600786747	21.913569324986
3.1100000000000	6.1949626118621	21.722949058134
3.1200000000000	6.0903909321190	21.533700653264
3.1300000000000	5.9904948040767	21.345910437537
3.1400000000000	5.8951261444662	21.159656934307
3.1500000000000	5.8041392473330	20.975011277891
3.1600000000000	5.7173909780913	20.792037618183
3.1700000000000	5.6347409388094	20.610793513986
3.1800000000000	5.5560516070267	20.431330314181
3.1900000000000	5.4811884503012	20.253693526035
3.2000000000000	5.4100200185812	20.077923170137
3.2100000000000	5.3424180163846	19.904054121599
3.2200000000000	5.2782573566574	19.732116437319
3.2300000000000	5.2174161980702	19.562135669192
3.2400000000000	5.1597759674003	19.394133163288
3.2500000000000	5.1052213685366	19.228126345100
3.2600000000000	5.0536403795385	19.064128991018
3.2700000000000	5.0049242390756	18.902151486287
3.2800000000000	4.9589674234740	18.742201069740
3.2900000000000	4.9156676155025	18.584282065628
3.3000000000000	4.8749256659374	18.428396102940
3.3100000000000	4.8366455488614	18.274542322595
3.3200000000000	4.8007343115684	18.122717572937
3.3300000000000	4.7671020198701	17.972916593966
3.3400000000000	4.7356616995297	17.825132190749
3.3500000000000	4.7063292744771	17.679355396456
3.3600000000000	4.6790235024028	17.535575625481
3.3700000000000	4.6536659082639	17.393780817098
3.3800000000000	4.6301807161861	17.253957570077
3.3900000000000	4.6084947801927	17.116091268732
3.4000000000000	4.5885375141475	16.980166200792
3.4100000000000	4.5702408212559	16.846165667543
3.4200000000000	4.5535390234281	16.714072086630
3.4300000000000	4.5383687907744	16.583867087915
3.4400000000000	4.5246690714710	16.455531602780
3.4500000000000	4.5123810222009	16.329045947228
3.4600000000000	4.5014479393524	16.204389899145
3.4700000000000	4.4918151911308	16.081542770050
3.4800000000000	4.4834301507156	15.960483471667
3.4900000000000	4.4762421305778	15.841190577615
3.5000000000000	4.4702023180524	15.723642380518
3.5100000000000	4.4652637122451	15.607816944813
3.5200000000000	4.4613810623375	15.493692155517
3.5300000000000	4.4585108073422	15.381245763211
3.5400000000000	4.4566110173467	15.270455425481
3.5500000000000	4.4556413362764	15.161298745031
3.5600000000000	4.4555629261949	15.053753304700
3.5700000000000	4.4563384131543	14.947796699568
3.5800000000000	4.4579318345993	14.843406566353
3.5900000000000	4.4603085883226	14.740560610276
3.6000000000000	4.4634353829657	14.639236629563
3.6100000000000	4.4672801900491	14.539412537742
3.6200000000000	4.4718121975196	14.441066383891
3.6300000000000	4.4770017647902	14.344176370977
3.6400000000000	4.4828203792526	14.248720872406
3.6500000000000	4.4892406142332	14.154678446934
3.6600000000000	4.4962360883675	14.062027852034
3.6700000000000	4.5037814263601	13.970748055833
3.6800000000000	4.5118522211010	13.880818247733
3.6900000000000	4.5204249971042	13.792217847801
3.7000000000000	4.5294771752360	13.704926515020
3.7100000000000	4.5389870386989	13.618924154490
3.7200000000000	4.5489337002356	13.534190923655
3.7300000000000	4.5592970705200	13.450707237627
3.7400000000000	4.5700578276989	13.368453773683
3.7500000000000	4.5811973880509	13.287411474993
3.7600000000000	4.5926978777268	13.207561553642
3.7700000000000	4.6045421055386	13.128885493002
3.7800000000000	4.6167135367622	13.051365049505
3.7900000000000	4.6291962679210	12.974982253868
3.8000000000000	4.6419750025181	12.899719411813
3.8100000000000	4.6550350276834	12.825559104328
3.8200000000000	4.6683621917062	12.752484187500
3.8300000000000	4.6819428824209	12.680477791974
3.8400000000000	4.6957640064163	12.609523322046
3.8500000000000	4.7098129690397	12.539604454451
3.8600000000000	4.7240776551655	12.470705136849
3.8700000000000	4.7385464107035	12.402809586058
3.8800000000000	4.7532080248159	12.335902286044
3.8900000000000	4.7680517128215	12.269967985699
3.9000000000000	4.7830670997569	12.204991696428
3.9100000000000	4.7982442045739	12.140958689564
3.9200000000000	4.8135734249473	12.077854493630
3.9300000000000	4.8290455226699	12.015664891468
3.9400000000000	4.8446516096141	11.954375917244
3.9500000000000	4.8603831342359	11.893973853357
3.9600000000000	4.8762318686034	11.834445227246
3.9700000000000	4.8921898959270	11.775776808130
3.9800000000000	4.9082495985739	11.717955603675
3.9900000000000	4.9244036465469	11.660968856609
4.0000000000000	4.9406449864107	11.604804041289
4.0100000000000	4.9569668306464	11.549448860235
4.0200000000000	4.9733626474199	11.494891240630
4.0300000000000	4.9898261507458	11.441119330808
4.0400000000000	5.0063512910329	11.388121496721
4.0500000000000	5.0229322459956	11.335886318404
4.0600000000000	5.0395634119165	11.284402586437
4.0700000000000	5.0562393952474	11.233659298410
4.0800000000000	5.0729550045345	11.183645655405
4.0900000000000	5.0897052426556	11.134351058478
4.1000000000000	5.1064852993562	11.085765105172
4.1100000000000	5.1232905440735	11.037877586048
4.1200000000000	5.1401165190370	10.990678481233
4.1300000000000	5.1569589326339	10.944157957007
4.1400000000000	5.1738136530292	10.898306362413
4.1500000000000	5.1906767020312	10.853114225903
4.1600000000000	5.2075442491918	10.808572252019
4.1700000000000	5.2244126061323	10.764671318107
4.1800000000000	5.2412782210867	10.721402471076
4.1900000000000	5.2581376736524	10.678756924191
4.2000000000000	5.2749876697420	10.636726053911
4.2100000000000	5.2918250367266	10.595301396766
4.2200000000000	5.3086467187637	10.554474646281
4.2300000000000	5.3254497723029	10.514237649940
4.2400000000000	5.3422313617615	10.474582406200
4.2500000000000	5.3589887553638	10.435501061542
4.2600000000000	5.3757193211374	10.396985907577
4.2700000000000	5.3924205230613	10.359029378190
4.2800000000000	5.4090899173580	10.321624046732
4.2900000000000	5.4257251489256	10.284762623263
4.3000000000000	5.4423239479036	10.248437951835
4.3100000000000	5.4588841263678	10.212643007821
4.3200000000000	5.4754035751481	10.177370895296
4.3300000000000	5.4918802607657	10.142614844457
4.3400000000000	5.5083122224843	10.108368209093
4.3500000000000	5.5246975694708	10.074624464097
4.3600000000000	5.5410344780621	10.041377203023
4.3700000000000	5.5573211891325	10.008620135693
4.3800000000000	5.5735560055588	9.9763470858387
4.3900000000000	5.5897372897795	9.9445519887949
4.4000000000000	5.6058634614432	9.9132288892314
4.4100000000000	5.6219329951446	9.8823719389288
4.4200000000000	5.6379444182425	9.8519753945970
4.4300000000000	5.6538963087588	9.8220336157338
4.4400000000000	5.6697872933542	9.7925410625257
4.4500000000000	5.6856160453776	9.7634922937877
4.4600000000000	5.7013812829869	9.7348819649444
4.4700000000000	5.7170817673381	9.7067048260488
4.4800000000000	5.7327163008405	9.6789557198401
4.4900000000000	5.7482837254753	9.6516295798397
4.5000000000000	5.7637829211742	9.6247214284841
4.5100000000000	5.7792128042579	9.5982263752940
4.5200000000000	5.7945723259301	9.5721396150803
4.5300000000000	5.8098604708261	9.5464564261846
4.5400000000000	5.8250762556137	9.5211721687548
4.5500000000000	5.8402187276443	9.4962822830545
4.5600000000000	5.8552869636517	9.4717822878060
4.5700000000000	5.8702800684990	9.4476677785659
4.5800000000000	5.8851971739689	9.4239344261328
4.5900000000000	5.9000374375975	9.4005779749870
4.6000000000000	5.9148000415503	9.3775942417603
4.6100000000000	5.9294841915376	9.3549791137365
4.6200000000000	5.9440891157684	9.3327285473817
4.6300000000000	5.9586140639418	9.3108385669032
4.6400000000000	5.9730583062740	9.2893052628375
4.6500000000000	5.9874211325597	9.2681247906652
4.6600000000000	6.0017018512667	9.2472933694541
4.6700000000000	6.0158997886628	9.2268072805287
4.6800000000000	6.0300142879726	9.2066628661653
4.6900000000000	6.0440447085656	9.1868565283136
4.7000000000000	6.0579904251713	9.1673847273425
4.7100000000000	6.0718508271228	9.1482439808106
4.7200000000000	6.0856253176270	9.1294308622612
4.7300000000000	6.0993133130605	9.1109420000397
4.7400000000000	6.1129142422896	9.0927740761344
4.7500000000000	6.1264275460152	9.0749238250402
4.7600000000000	6.1398526761402	9.0573880326430
4.7700000000000	6.1531890951590	9.0401635351265
4.7800000000000	6.1664362755688	9.0232472178995
4.7900000000000	6.1795936993017	9.0066360145435
4.8000000000000	6.1926608571765	8.9903269057802
4.8100000000000	6.2056372483699	8.9743169184595
4.8200000000000	6.2185223799065	8.9586031245648
4.8300000000000	6.2313157661670	8.9431826402384
4.8400000000000	6.2440169284130	8.9280526248246
4.8500000000000	6.2566253943300	8.9132102799303
4.8600000000000	6.2691406975851	8.8986528485031
4.8700000000000	6.2815623774020	8.8843776139269
4.8800000000000	6.2938899781499	8.8703818991330
4.8900000000000	6.3061230489480	8.8566630657284
4.9000000000000	6.3182611432836	8.8432185131390
4.9100000000000	6.3303038186448	8.8300456777691
4.9200000000000	6.3422506361658	8.8171420321751
4.9300000000000	6.3541011602850	8.8045050842544
4.9400000000000	6.3658549584167	8.7921323764487
4.9500000000000	6.3775116006340	8.7800214849607
4.9600000000000	6.3890706593632	8.7681700189856
4.9700000000000	6.4005317090907	8.7565756199545
4.9800000000000	6.4118943260803	8.7452359607921
4.9900000000000	6.4231580881005	8.7341487451864
5.0000000000000	6.4343225741641	8.7233117068713
5.0100000000000	6.4453873642759	8.7127226089208
5.0200000000000	6.4563520391913	8.7023792430551
5.0300000000000	6.4672161801843	8.6922794289593
5.0400000000000	6.4779793688248	8.6824210136115
5.0500000000000	6.4886411867645	8.6728018706237
5.0600000000000	6.4992012155318	8.6634198995925
5.0700000000000	6.5096590363356	8.6542730254604
5.0800000000000	6.5200142298770	8.6453591978876
5.0900000000000	6.5302663761689	8.6366763906335
5.1000000000000	6.5404150543640	8.6282226009485
5.1100000000000	6.5504598425900	8.6199958489744
5.1200000000000	6.5604003177928	8.6119941771552
5.1300000000000	6.5702360555865	8.6042156496564
5.1400000000000	6.5799666301110	8.5966583517930
5.1500000000000	6.5895916138960	8.5893203894668
5.1600000000000	6.5991105777325	8.5821998886115
5.1700000000000	6.6085230905505	8.5752949946469
5.1800000000000	6.6178287193033	8.5686038719401
5.1900000000000	6.6270270288584	8.5621247032757
5.2000000000000	6.6361175818942	8.5558556893329
5.2100000000000	6.6450999388035	8.5497950481708
5.2200000000000	6.6539736576025	8.5439410147206
5.2300000000000	6.6627382938455	8.5382918402853
5.2400000000000	6.6713934005464	8.5328457920460
5.2500000000000	6.6799385281045	8.5276011525760
5.2600000000000	6.6883732242371	8.5225562193608
5.2700000000000	6.6966970339170	8.5177093043251
5.2800000000000	6.7049094993152	8.5130587333660
5.2900000000000	6.7130101597496	8.5086028458931
5.3000000000000	6.7209985516386	8.5043399943741
5.3100000000000	6.7288742084596	8.5002685438870
5.3200000000000	6.7366366607129	8.4963868716780
5.3300000000000	6.7442854358909	8.4926933667252
5.3400000000000	6.7518200584516	8.4891864293083
5.3500000000000	6.7592400497976	8.4858644705834
5.3600000000000	6.7665449282596	8.4827259121642
5.3700000000000	6.7737342090849	8.4797691857073
5.3800000000000	6.7808074044307	8.4769927325044
5.3900000000000	6.7877640233618	8.4743950030778
5.4000000000000	6.7946035718533	8.4719744567833
5.4100000000000	6.8013255527978	8.4697295614159
5.4200000000000	6.8079294660169	8.4676587928220
5.4300000000000	6.8144148082778	8.4657606345158
5.4400000000000	6.8207810733142	8.4640335773009
5.4500000000000	6.8270277518512	8.4624761188961
5.4600000000000	6.8331543316352	8.4610867635663
5.4700000000000	6.8391602974684	8.4598640217580
5.4800000000000	6.8450451312470	8.4588064097390
5.4900000000000	6.8508083120042	8.4579124492433
5.5000000000000	6.8564493159576	8.4571806671192
5.5100000000000	6.8619676165607	8.4566095949835
5.5200000000000	6.8673626845590	8.4561977688782
5.5300000000000	6.8726339880502	8.4559437289332
5.5400000000000	6.8777809925485	8.4558460190320
5.5500000000000	6.8828031610536	8.4559031864822
5.5600000000000	6.8876999541237	8.4561137816905
5.5700000000000	6.8924708299527	8.4564763578410
5.5800000000000	6.8971152444516	8.4569894705782
5.5900000000000	6.9016326513345	8.4576516776946
5.6000000000000	6.9060225022081	8.4584615388213
5.6100000000000	6.9102842466661	8.4594176151235
5.6200000000000	6.9144173323874	8.4605184690000
5.6300000000000	6.9184212052385	8.4617626637864
5.6400000000000	6.9222953093800	8.4631487634626
5.6500000000000	6.9260390873777	8.4646753323647
5.6600000000000	6.9296519803174	8.4663409349002
5.6700000000000	6.9331334279237	8.4681441352679
5.6800000000000	6.9364828686835	8.4700834971817
5.6900000000000	6.9396997399732	8.4721575835982
5.7000000000000	6.9427834781904	8.4743649564490
5.7100000000000	6.9457335188889	8.4767041763764
5.7200000000000	6.9485492969190	8.4791738024736
5.7300000000000	6.9512302465707	8.4817723920294
5.7400000000000	6.9537758017218	8.4844985002760
5.7500000000000	6.9561853959899	8.4873506801421
5.7600000000000	6.9584584628881	8.4903274820098
5.7700000000000	6.9605944359850	8.4934274534752
5.7800000000000	6.9625927490689	8.4966491391146
5.7900000000000	6.9644528363160	8.4999910802535
5.8000000000000	6.9661741324620	8.5034518147408
5.8100000000000	6.9677560729784	8.5070298767277
5.8200000000000	6.9691980942529	8.5107237964501
5.8300000000000	6.9704996337725	8.5145321000159
5.8400000000000	6.9716601303124	8.5184533091975
5.8500000000000	6.9726790241271	8.5224859412275
5.8600000000000	6.9735557571464	8.5266285086002
5.8700000000000	6.9742897731751	8.5308795188776
5.8800000000000	6.9748805180963	8.5352374744992
5.8900000000000	6.9753274400785	8.5397008725980
5.9000000000000	6.9756299897871	8.5442682048202
5.9100000000000	6.9757876205985	8.5489379571504
5.9200000000000	6.9757997888193	8.5537086097416
5.9300000000000	6.9756659539079	8.5585786367504
5.9400000000000	6.9753855787008	8.5635465061767
5.9500000000000	6.9749581296416	8.5686106797099
5.9600000000000	6.9743830770146	8.5737696125784
5.9700000000000	6.9736598951806	8.5790217534064
5.9800000000000	6.9727880628174	8.5843655440746
5.9900000000000	6.9717670631631	8.5897994195873
6.0000000000000	6.9705963842627	8.5953218079444
6.0100000000000	6.9692755192185	8.6009311300193
6.0200000000000	6.9678039664434	8.6066257994424
6.0300000000000	6.9661812299171	8.6124042224906
6.0400000000000	6.9644068194464	8.6182647979823
6.0500000000000	6.9624802509273	8.6242059171782
6.0600000000000	6.9604010466114	8.6302259636888
6.0700000000000	6.9581687353741	8.6363233133872
6.0800000000000	6.9557828529865	8.6424963343283
6.0900000000000	6.9532429423894	8.6487433866745
6.1000000000000	6.9505485539704	8.6550628226274
6.1100000000000	6.9476992458439	8.6614529863661
6.1200000000000	6.9446945841326	8.6679122139914
6.1300000000000	6.9415341432524	8.6744388334779
6.1400000000000	6.9382175061995	8.6810311646308
6.1500000000000	6.9347442648393	8.6876875190515
6.1600000000000	6.9311140201973	8.6944062001081
6.1700000000000	6.9273263827533	8.7011855029141
6.1800000000000	6.9233809727359	8.7080237143135
6.1900000000000	6.9192774204196	8.7149191128731
6.2000000000000	6.9150153664240	8.7218699688815
6.2100000000000	6.9105944620134	8.7288745443558
6.2200000000000	6.9060143693991	8.7359310930554
6.2300000000000	6.9012747620424	8.7430378605029
6.2400000000000	6.8963753249586	8.7501930840126
6.2500000000000	6.8913157550226	8.7573949927264
6.2600000000000	6.8860957612750	8.7646418076575
6.2700000000000	6.8807150652292	8.7719317417407
6.2800000000000	6.8751734011793	8.7792629998922
6.2900000000000	6.8694705165077	8.7866337790748
6.3000000000000	6.8636061719945	8.7940422683730
6.3100000000000	6.8575801421253	8.8014866490745
6.3200000000000	6.8513922154007	8.8089650947605
6.3300000000000	6.8450421946444	8.8164757714029
6.3400000000000	6.8385298973117	8.8240168374708
6.3500000000000	6.8318551557976	8.8315864440438
6.3600000000000	6.8250178177436	8.8391827349341
6.3700000000000	6.8180177463443	8.8468038468165
6.3800000000000	6.8108548206531	8.8544479093667
6.3900000000000	6.8035289358860	8.8621130454070
6.4000000000000	6.7960400037248	8.8697973710615
6.4100000000000	6.7883879526184	8.8774989959181
6.4200000000000	6.7805727280826	8.8852160232002
6.4300000000000	6.7725942929974	8.8929465499450
6.4400000000000	6.7644526279034	8.9006886671916
6.4500000000000	6.7561477312942	8.9084404601763
6.4600000000000	6.7476796199081	8.9162000085365
6.4700000000000	6.7390483290154	8.9239653865232
6.4800000000000	6.7302539127042	8.9317346632210
6.4900000000000	6.7212964441623	8.9395059027770
6.5000000000000	6.7121760159555	8.9472771646374
6.5100000000000	6.7028927403037	8.9550465037928
6.5200000000000	6.6934467493516	8.9628119710312
6.5300000000000	6.6838381954364	8.9705716131989
6.5400000000000	6.6740672513513	8.9783234734706
6.5500000000000	6.6641341106043	8.9860655916260
6.5600000000000	6.6540389876728	8.9937960043354
6.5700000000000	6.6437821182525	9.0015127454527
6.5800000000000	6.6333637595027	9.0092138463168
6.5900000000000	6.6227841902850	9.0168973360601
6.6000000000000	6.6120437113971	9.0245612419246
6.6100000000000	6.6011426458013	9.0322035895867
6.6200000000000	6.5900813388459	9.0398224034880
6.6300000000000	6.5788601584822	9.0474157071747
6.6400000000000	6.5674794954735	9.0549815236437
6.6500000000000	6.5559397635985	9.0625178756957
6.6600000000000	6.5442413998479	9.0700227862962
6.6700000000000	6.5323848646133	9.0774942789424
6.6800000000000	6.5203706418701	9.0849303780375
6.6900000000000	6.5081992393518	9.0923291092720
6.7000000000000	6.4958711887174	9.0996885000102
6.7100000000000	6.4833870457109	9.1070065796849
6.7200000000000	6.4707473903127	9.1142813801966
6.7300000000000	6.4579528268824	9.1215109363197
6.7400000000000	6.4450039842941	9.1286932861146
6.7500000000000	6.4319015160624	9.1358264713449
6.7600000000000	6.4186461004593	9.1429085379004
6.7700000000000	6.4052384406233	9.1499375362257
6.7800000000000	6.3916792646582	9.1569115217532
6.7900000000000	6.3779693257230	9.1638285553420
6.8000000000000	6.3641094021122	9.1706867037203
6.8100000000000	6.3501002973267	9.1774840399332
6.8200000000000	6.3359428401344	9.1842186437945
6.8300000000000	6.3216378846211	9.1908886023423
6.8400000000000	6.3071863102308	9.1974920102982
6.8500000000000	6.2925890217967	9.2040269705309
