freq	mu_Re	mu_Im
2.7000000000000	4.5010681428945	30.162601928628
2.7100000000000	4.1905627185882	29.948501578974
2.7200000000000	3.8891154697486	29.727745612292
2.7300000000000	3.5968731038164	29.500841033033
2.7400000000000	3.3139497700863	29.268292048105
2.7500000000000	3.0404281802548	29.030597801068
2.7600000000000	2.7763608843895	28.788250281730
2.7700000000000	2.5217716783957	28.541732419198
2.7800000000000	2.2766571193290	28.291516363405
2.7900000000000	2.0409881255353	28.038061957226
2.8000000000000	1.8147116395592	27.781815398666
2.8100000000000	1.5977523329793	27.523208090269
2.8200000000000	1.3900143337621	27.262655670792
2.8300000000000	1.1913829583081	27.000557222447
2.8400000000000	1.0017264320630	26.737294645528
2.8500000000000	0.82089758431892	26.473232191052
2.8600000000000	0.64873550460618	26.208716141141
2.8700000000000	0.48506714984008	25.944074626228
2.8800000000000	0.32970889309686	25.679617567746
2.8900000000000	0.18246800653741	25.415636734777
2.9000000000000	0.043144072549421	25.152405903114
2.9100000000000	-0.088469681380562	24.890181105362
2.9200000000000	-0.21258512722274	24.629200960993
2.9300000000000	-0.32941806234639	24.369687075674
2.9400000000000	-0.43918711772858	24.111844499695
2.9500000000000	-0.54211274836228	23.855862235899
2.9600000000000	-0.63841630497131	23.601913788134
2.9700000000000	-0.72831918543492	23.350157741902
2.9800000000000	-0.81204206373366	23.100738369560
2.9900000000000	-0.88980419374257	22.853786253108
3.0000000000000	-0.96182278481025	22.609418918271
3.0100000000000	-1.0283124457651	22.367741474232
3.0200000000000	-1.0894846937701	22.128847254042
3.0300000000000	-1.1455475243038	21.892818451279
3.0400000000000	-1.1967050384585	21.659726749175
3.0500000000000	-1.2431571237194	21.429633938914
3.0600000000000	-1.2850991844049	21.202592524317
3.0700000000000	-1.3227219180042	20.978646310619
3.0800000000000	-1.3562111337373	20.757830975412
3.0900000000000	-1.3857476097792	20.540174620263
3.1000000000000	-1.4115069857233	20.325698301825
3.1100000000000	-1.4336596870119	20.114416541589
3.1200000000000	-1.4523708782259	19.906337813684
3.1300000000000	-1.4678004422950	19.701465010378
3.1400000000000	-1.4801029828655	19.499795885151
3.1500000000000	-1.4894278472397	19.301323473388
3.1600000000000	-1.4959191674780	19.106036490888
3.1700000000000	-1.4997159174266	18.913919710528
3.1800000000000	-1.5009519836049	18.724954317540
3.1900000000000	-1.4997562480498	18.539118243918
3.2000000000000	-1.4962526813725	18.356386482590
3.2100000000000	-1.4905604444330	18.176731382010
3.2200000000000	-1.4827939971819	18.000122921889
3.2300000000000	-1.4730632133531	17.826528970818
3.2400000000000	-1.4614734998183	17.655915526541
3.2500000000000	-1.4481259195335	17.488246939670
3.2600000000000	-1.4331173171194	17.323486121623
3.2700000000000	-1.4165404462173	17.161594737567
3.2800000000000	-1.3984840978621	17.002533385144
3.2900000000000	-1.3790332291991	16.846261759744
3.3000000000000	-1.3582690919504	16.692738807075
3.3100000000000	-1.3362693601164	16.541922863745
3.3200000000000	-1.3131082564593	16.393771786572
3.3300000000000	-1.2888566773816	16.248243071304
3.3400000000000	-1.2635823158650	16.105293961393
3.3500000000000	-1.2373497821896	15.964881547460
3.3600000000000	-1.2102207221955	15.826962858049
3.3700000000000	-1.1822539328917	15.691494942243
3.3800000000000	-1.1535054752543	15.558434944694
3.3900000000000	-1.1240287840880	15.427740173575
3.4000000000000	-1.0938747748546	15.299368161954
3.4100000000000	-1.0630919473997	15.173276723049
3.4200000000000	-1.0317264865282	15.049423999811
3.4300000000000	-0.99982235940503	14.927768509236
3.4400000000000	-0.96742140976915	14.808269181815
3.4500000000000	-0.93456344897007	14.690885396466
3.4600000000000	-0.90128634384519	14.575577011307
3.4700000000000	-0.86762610147097	14.462304390589
3.4800000000000	-0.83361695082871	14.351028428092
3.4900000000000	-0.79929142143613	14.241710567257
3.5000000000000	-0.76468041900101	14.134312818330
3.5100000000000	-0.72981329816072	14.028797772761
3.5200000000000	-0.69471793237546	13.925128615081
3.5300000000000	-0.65942078104672	13.823269132474
3.5400000000000	-0.62394695393632	13.723183722250
3.5500000000000	-0.58832027296253	13.624837397390
3.5600000000000	-0.55256333145238	13.528195790344
3.5700000000000	-0.51669755092962	13.433225155242
3.5800000000000	-0.48074323551846	13.339892368658
3.5900000000000	-0.44471962404343	13.248164929069
3.6000000000000	-0.40864493990532	13.158010955133
3.6100000000000	-0.37253643881219	13.069399182905
3.6200000000000	-0.33641045444416	12.982298962092
3.6300000000000	-0.30028244212898	12.896680251462
3.6400000000000	-0.26416702060388	12.812513613476
3.6500000000000	-0.22807801193862	12.729770208244
3.6600000000000	-0.19202847969165	12.648421786883
3.6700000000000	-0.15603076537084	12.568440684329
3.6800000000000	-0.12009652326698	12.489799811699
3.6900000000000	-0.084236753727920	12.412472648230
3.7000000000000	-0.048461834937783	12.336433232879
3.7100000000000	-0.012781553264486	12.261656155605
3.7200000000000	0.022794867763157	12.188116548411
3.7300000000000	0.058258739790320	12.115790076155
3.7400000000000	0.093601883225340	12.044652927196
3.7500000000000	0.12881660202876	11.974681803881
3.7600000000000	0.16389565964910	11.905853912935
3.7700000000000	0.19883225605401	11.838146955755
3.7800000000000	0.23362000580823	11.771539118646
3.7900000000000	0.26825291715063	11.706009063023
3.8000000000000	0.30272537202520	11.641535915588
3.8100000000000	0.33703210702228	11.578099258516
3.8200000000000	0.37116819518827	11.515679119645
3.8300000000000	0.40512902866355	11.454255962707
3.8400000000000	0.43891030211021	11.393810677590
3.8500000000000	0.47250799689275	11.334324570660
3.8600000000000	0.50591836597628	11.275779355129
3.8700000000000	0.53913791950850	11.218157141505
3.8800000000000	0.57216341105312	11.161440428105
3.8900000000000	0.60499182444376	11.105612091641
3.9000000000000	0.63762036122884	11.050655377897
3.9100000000000	0.67004642867907	10.996553892471
3.9200000000000	0.70226762833099	10.943291591612
3.9300000000000	0.73428174504038	10.890852773131
3.9400000000000	0.76608673652174	10.839222067391
3.9500000000000	0.79768072335013	10.788384428374
3.9600000000000	0.82906197940355	10.738325124819
3.9700000000000	0.86022892272519	10.689029731432
3.9800000000000	0.89118010678549	10.640484120151
3.9900000000000	0.92191421212574	10.592674451465
4.0000000000000	0.95243003836590	10.545587165790
4.0100000000000	0.98272649656008	10.499208974864
4.0200000000000	1.0128026018852	10.453526853181
4.0300000000000	1.0426574666486	10.408528029434
4.0400000000000	1.0722902936024	10.364199977961
4.0500000000000	1.1017003695536	10.320530410174
4.0600000000000	1.1308870592596	10.277507265955
4.0700000000000	1.1598497996020	10.235118705018
4.0800000000000	1.1885880940313	10.193353098184
4.0900000000000	1.2171015072783	10.152199018580
4.1000000000000	1.2453896603294	10.111645232722
4.1100000000000	1.2734522256664	10.071680691460
4.1200000000000	1.3012889227709	10.032294520753
4.1300000000000	1.3288995139010	9.9934760122512
4.1400000000000	1.3562838001463	9.9552146136415
4.1500000000000	1.3834416177757	9.9174999187312
4.1600000000000	1.4103728348918	9.8803216572173
4.1700000000000	1.4370773484156	9.8436696841069
4.1800000000000	1.4635550814281	9.8075339687354
4.1900000000000	1.4898059809017	9.7719045833341
4.2000000000000	1.5158300158646	9.7367716910872
4.2100000000000	1.5416271760479	9.7021255336194
4.2200000000000	1.5671974710786	9.6679564178473
4.2300000000000	1.5925409302895	9.6342547021219
4.2400000000000	1.6176576032379	9.6010107815863
4.2500000000000	1.6425475610362	9.5682150726671
4.2600000000000	1.6672108986215	9.5358579966111
4.2700000000000	1.6916477381116	9.5039299619768
4.2800000000000	1.7158582334258	9.4724213459840
4.2900000000000	1.7398425763772	9.4413224746259
4.3000000000000	1.7636010044841	9.4106236014392
4.3100000000000	1.7871338107892	9.3803148848434
4.3200000000000	1.8104413560297	9.3503863639484
4.3300000000000	1.8335240835570	9.3208279327552
4.3400000000000	1.8563825374796	9.2916293126814
4.3500000000000	1.8790173845765	9.2627800233745
4.3600000000000	1.9014294406271	9.2342693518095
4.3700000000000	1.9236197019070	9.2060863197231
4.3800000000000	1.9455893827185	9.1782196495101
4.3900000000000	1.9673399599661	9.1506577288012
4.4000000000000	1.9888732259361	9.1233885740835
4.4100000000000	2.0101913506094	9.0963997938874
4.4200000000000	2.0312969550204	9.0696785523043
4.4300000000000	2.0521931973649	9.0432115338879
4.4400000000000	2.0728838737557	9.0169849113771
4.4500000000000	2.0933735357110	8.9909843181646
4.4600000000000	2.1136676266168	8.9651948280457
4.4700000000000	2.1337726395148	8.9396009455603
4.4800000000000	2.1536962985727	8.9141866111758
4.4900000000000	2.1734477664656	8.8889352267377
4.5000000000000	2.1930378795447	8.8638297079996
4.5100000000000	2.2124794119761	8.8388525727023
4.5200000000000	2.2317873689272	8.8139860745678
4.5300000000000	2.2509793070928	8.7892123956995
4.5400000000000	2.2700756782873	8.7645139121271
4.5500000000000	2.2891001881515	8.7398735494619
4.5600000000000	2.3080801570062	8.7152752475572
4.5700000000000	2.3270468632535	8.6907045542477
4.5800000000000	2.3460358412434	8.6661493680659
4.5900000000000	2.3650870951415	8.6416008473986
4.6000000000000	2.3842451782406	8.6170544976843
4.6100000000000	2.4035590740062	8.5925114375947
4.6200000000000	2.4230818023483	8.5679798280788
4.6300000000000	2.4428696644457	8.5434764233346
4.6400000000000	2.4629810355148	8.5190281693048
4.6500000000000	2.4834746218855	8.4946737337169
4.6600000000000	2.5044071223392	8.4704648046716
4.6700000000000	2.5258302794869	8.4464669483235
4.6800000000000	2.5477873789153	8.4227597802423
4.6900000000000	2.5703093514732	8.3994361933004
4.7000000000000	2.5934107498145	8.3766004132455
4.7100000000000	2.6170859869157	8.3543647353695
4.7200000000000	2.6413063149126	8.3328449380156
4.7300000000000	2.6660180546656	8.3121545626373
4.7400000000000	2.6911425300810	8.2923984682973
4.7500000000000	2.7165780015025	8.2736662655434
4.7600000000000	2.7422036404936	8.2560263565972
4.7700000000000	2.7678852857234	8.2395213098805
4.7800000000000	2.7934824316177	8.2241651576158
4.7900000000000	2.8188556981803	8.2099429445119
4.8000000000000	2.8438739634959	8.1968125285430
4.8100000000000	2.8684204244836	8.1847083166381
4.8200000000000	2.8923970595201	8.1735463788077
4.8300000000000	2.9157272412885	8.1632302671991
4.8400000000000	2.9383565231998	8.1536568783137
4.8500000000000	2.9602518432098	8.1447218111217
4.8600000000000	2.9813995248588	8.1363238468255
4.8700000000000	3.0018025032282	8.1283683614111
4.8800000000000	3.0214771793952	8.1207696443285
4.8900000000000	3.0404502365610	8.1134522158539
4.9000000000000	3.0587556602305	8.1063513069998
4.9100000000000	3.0764321141213	8.0994126948631
4.9200000000000	3.0935207456841	8.0925920838628
4.9300000000000	3.1100634359488	8.0858542012534
4.9400000000000	3.1261014684547	8.0791717437754
4.9500000000000	3.1416745687346	8.0725242787664
4.9600000000000	3.1568202554031	8.0658971721425
4.9700000000000	3.1715734424201	8.0592805896898
4.9800000000000	3.1859662361684	8.0526685978366
4.9900000000000	3.2000278779797	8.0460583751964
5.0000000000000	3.2137847908652	8.0394495359404
5.0100000000000	3.2272606972566	8.0328435595199
5.0200000000000	3.2404767819052	8.0262433174870
5.0300000000000	3.2534518804187	8.0196526863749
5.0400000000000	3.2662026791226	8.0130762351259
5.0500000000000	3.2787439161144	8.0065189759424
5.0600000000000	3.2910885766152	7.9999861682889
5.0700000000000	3.3032480781813	7.9934831668837
5.0800000000000	3.3152324431506	7.9870153056933
5.0900000000000	3.3270504570155	7.9805878111040
5.1000000000000	3.3387098123268	7.9742057385158
5.1100000000000	3.3502172383592	7.9678739275725
5.1200000000000	3.3615786171699	7.9615969720786
5.1300000000000	3.3727990869253	7.9553792013820
5.1400000000000	3.3838831334965	7.9492246706064
5.1500000000000	3.3948346713771	7.9431371576310
5.1600000000000	3.4056571149668	7.9371201651346
5.1700000000000	3.4163534412281	7.9311769263670
5.1800000000000	3.4269262446621	7.9253104135927
5.1900000000000	3.4373777854756	7.9195233483807
5.2000000000000	3.4477100317360	7.9138182130965
5.2100000000000	3.4579246962329	7.9081972631009
5.2200000000000	3.4680232686895	7.9026625392774
5.2300000000000	3.4780070438969	7.8972158806038
5.2400000000000	3.4878771462801	7.8918589365556
5.2500000000000	3.4976345513417	7.8865931791904
5.2600000000000	3.5072801043790	7.8814199148027
5.2700000000000	3.5168145368202	7.8763402950793
5.2800000000000	3.5262384804822	7.8713553277079
5.2900000000000	3.5355524800153	7.8664658864155
5.3000000000000	3.5447570037662	7.8616727204274
5.3100000000000	3.5538524532613	7.8569764633492
5.3200000000000	3.5628391714871	7.8523776414831
5.3300000000000	3.5717174501196	7.8478766815972
5.3400000000000	3.5804875358393	7.8434739181679
5.3500000000000	3.5891496358452	7.8391696001197
5.3600000000000	3.5977039226727	7.8349638970908
5.3700000000000	3.6061505384015	7.8308569052475
5.3800000000000	3.6144895983320	7.8268486526781
5.3900000000000	3.6227211941972	7.8229391043893
5.4000000000000	3.6308453969689	7.8191281669341
5.4100000000000	3.6388622593091	7.8154156926936
5.4200000000000	3.6467718177117	7.8118014838375
5.4300000000000	3.6545740943735	7.8082852959863
5.4400000000000	3.6622690988283	7.8048668415953
5.4500000000000	3.6698568293739	7.8015457930822
5.4600000000000	3.6773372743185	7.7983217857152
5.4700000000000	3.6847104130687	7.7951944202806
5.4800000000000	3.6919762170793	7.7921632655455
5.4900000000000	3.6991346506823	7.7892278605319
5.5000000000000	3.7061856718109	7.7863877166148
5.5100000000000	3.7131292326301	7.7836423194588
5.5200000000000	3.7199652800886	7.7809911308048
5.5300000000000	3.7266937563989	7.7784335901185
5.5400000000000	3.7333145994579	7.7759691161100
5.5500000000000	3.7398277432128	7.7735971081363
5.5600000000000	3.7462331179820	7.7713169474931
5.5700000000000	3.7525306507352	7.7691279986064
5.5800000000000	3.7587202653392	7.7670296101293
5.5900000000000	3.7648018827728	7.7650211159539
5.6000000000000	3.7707754213169	7.7631018361412
5.6100000000000	3.7766407967215	7.7612710777785
5.6200000000000	3.7823979223540	7.7595281357677
5.6300000000000	3.7880467093308	7.7578722935496
5.6400000000000	3.7935870666358	7.7563028237704
5.6500000000000	3.7990189012261	7.7548189888935
5.6600000000000	3.8043421181294	7.7534200417609
5.6700000000000	3.8095566205321	7.7521052261079
5.6800000000000	3.8146623098611	7.7508737770351
5.6900000000000	3.8196590858609	7.7497249214405
5.7000000000000	3.8245468466656	7.7486578784136
5.7100000000000	3.8293254888681	7.7476718595966
5.7200000000000	3.8339949075872	7.7467660695131
5.7300000000000	3.8385549965328	7.7459397058675
5.7400000000000	3.8430056480700	7.7451919598171
5.7500000000000	3.8473467532835	7.7445220162195
5.7600000000000	3.8515782020416	7.7439290538560
5.7700000000000	3.8556998830608	7.7434122456338
5.7800000000000	3.8597116839722	7.7429707587680
5.7900000000000	3.8636134913878	7.7426037549455
5.8000000000000	3.8674051909699	7.7423103904712
5.8100000000000	3.8710866675014	7.7420898163986
5.8200000000000	3.8746578049583	7.7419411786465
5.8300000000000	3.8781184865847	7.7418636181009
5.8400000000000	3.8814685949703	7.7418562707053
5.8500000000000	3.8847080121297	7.7419182675399
5.8600000000000	3.8878366195853	7.7420487348892
5.8700000000000	3.8908542984520	7.7422467943006
5.8800000000000	3.8937609295255	7.7425115626341
5.8900000000000	3.8965563933730	7.7428421521033
5.9000000000000	3.8992405704266	7.7432376703100
5.9100000000000	3.9018133410802	7.7436972202705
5.9200000000000	3.9042745857888	7.7442199004370
5.9300000000000	3.9066241851711	7.7448048047127
5.9400000000000	3.9088620201149	7.7454510224620
5.9500000000000	3.9109879718857	7.7461576385162
5.9600000000000	3.9130019222376	7.7469237331747
5.9700000000000	3.9149037535278	7.7477483822032
5.9800000000000	3.9166933488340	7.7486306568279
5.9900000000000	3.9183705920744	7.7495696237277
6.0000000000000	3.9199353681304	7.7505643450230
6.0100000000000	3.9213875629725	7.7516138782632
6.0200000000000	3.9227270637892	7.7527172764121
6.0300000000000	3.9239537591180	7.7538735878318
6.0400000000000	3.9250675389793	7.7550818562656
6.0500000000000	3.9260682950139	7.7563411208196
6.0600000000000	3.9269559206216	7.7576504159448
6.0700000000000	3.9277303111035	7.7590087714174
6.0800000000000	3.9283913638065	7.7604152123202
6.0900000000000	3.9289389782702	7.7618687590234
6.1000000000000	3.9293730563767	7.7633684271665
6.1100000000000	3.9296935025016	7.7649132276400
6.1200000000000	3.9299002236692	7.7665021665683
6.1300000000000	3.9299931297078	7.7681342452937
6.1400000000000	3.9299721334093	7.7698084603615
6.1500000000000	3.9298371506893	7.7715238035058
6.1600000000000	3.9295881007501	7.7732792616383
6.1700000000000	3.9292249062457	7.7750738168369
6.1800000000000	3.9287474934484	7.7769064463378
6.1900000000000	3.9281557924177	7.7787761225287
6.2000000000000	3.9274497371708	7.7806818129443
6.2100000000000	3.9266292658547	7.7826224802640
6.2200000000000	3.9256943209203	7.7845970823123
6.2300000000000	3.9246448492981	7.7866045720618
6.2400000000000	3.9234808025750	7.7886438976379
6.2500000000000	3.9222021371730	7.7907140023279
6.2600000000000	3.9208088145293	7.7928138245914
6.2700000000000	3.9193008012773	7.7949422980749
6.2800000000000	3.9176780694293	7.7970983516286
6.2900000000000	3.9159405965597	7.7992809093273
6.3000000000000	3.9140883659902	7.8014888904939
6.3100000000000	3.9121213669753	7.8037212097265
6.3200000000000	3.9100395948882	7.8059767769294
6.3300000000000	3.9078430514093	7.8082544973472
6.3400000000000	3.9055317447130	7.8105532716025
6.3500000000000	3.9031056896571	7.8128719957380
6.3600000000000	3.9005649079719	7.8152095612618
6.3700000000000	3.8979094284495	7.8175648551969
6.3800000000000	3.8951392871338	7.8199367601347
6.3900000000000	3.8922545275108	7.8223241542923
6.4000000000000	3.8892552006988	7.8247259115740
6.4100000000000	3.8861413656387	7.8271409016373
6.4200000000000	3.8829130892841	7.8295679899628
6.4300000000000	3.8795704467918	7.8320060379282
6.4400000000000	3.8761135217108	7.8344539028872
6.4500000000000	3.8725424061725	7.8369104382522
6.4600000000000	3.8688572010789	7.8393744935819
6.4700000000000	3.8650580162914	7.8418449146730
6.4800000000000	3.8611449708178	7.8443205436566
6.4900000000000	3.8571181929993	7.8468002190992
6.5000000000000	3.8529778206962	7.8492827761077
6.5100000000000	3.8487240014724	7.8517670464404
6.5200000000000	3.8443568927790	7.8542518586206
6.5300000000000	3.8398766621362	7.8567360380569
6.5400000000000	3.8352834873142	7.8592184071664
6.5500000000000	3.8305775565124	7.8616977855041
6.5600000000000	3.8257590685365	7.8641729898955
6.5700000000000	3.8208282329743	7.8666428345754
6.5800000000000	3.8157852703697	7.8691061313301
6.5900000000000	3.8106304123938	7.8715616896454
6.6000000000000	3.8053639020150	7.8740083168581
6.6100000000000	3.7999859936654	7.8764448183133
6.6200000000000	3.7944969534061	7.8788699975258
6.6300000000000	3.7888970590892	7.8812826563463
6.6400000000000	3.7831866005168	7.8836815951321
6.6500000000000	3.7773658795983	7.8860656129226
6.6600000000000	3.7714352105033	7.8884335076193
6.6700000000000	3.7653949198127	7.8907840761704
6.6800000000000	3.7592453466657	7.8931161147598
6.6900000000000	3.7529868429036	7.8954284190008
6.7000000000000	3.7466197732107	7.8977197841340
6.7100000000000	3.7401445152506	7.8999890052300
6.7200000000000	3.7335614597998	7.9022348773956
6.7300000000000	3.7268710108764	7.9044561959852
6.7400000000000	3.7200735858657	7.9066517568161
6.7500000000000	3.7131696156409	7.9088203563877
6.7600000000000	3.7061595446801	7.9109607921052
6.7700000000000	3.6990438311786	7.9130718625068
6.7800000000000	3.6918229471567	7.9151523674957
6.7900000000000	3.6844973785630	7.9172011085746
6.8000000000000	3.6770676253728	7.9192168890858
6.8100000000000	3.6695342016818	7.9211985144530
