freq    s11
2.7000000000000	-7.2637882258032
2.7100000000000	-7.3626341564636
2.7200000000000	-7.4621596080462
2.7300000000000	-7.5623614090185
2.7400000000000	-7.6632363168023
2.7500000000000	-7.7647810116325
2.7600000000000	-7.8669920897876
2.7700000000000	-7.9698660561620
2.7800000000000	-8.0733993161450
2.7900000000000	-8.1775881667757
2.8000000000000	-8.2824287871345
2.8100000000000	-8.3879172279372
2.8200000000000	-8.4940494002894
2.8300000000000	-8.6008210635622
2.8400000000000	-8.7082278123447
2.8500000000000	-8.8162650624299
2.8600000000000	-8.9249280357853
2.8700000000000	-9.0342117444600
2.8800000000000	-9.1441109733773
2.8900000000000	-9.2546202619589
2.9000000000000	-9.3657338845259
2.9100000000000	-9.4774458294182
2.9200000000000	-9.5897497767748
2.9300000000000	-9.7026390749105
2.9400000000000	-9.8161067152279
2.9500000000000	-9.9301453055996
2.9600000000000	-10.044747042151
2.9700000000000	-10.159903679382
2.9800000000000	-10.275606498546
2.9900000000000	-10.391846274233
3.0000000000000	-10.508613239075
3.0100000000000	-10.625897046499
3.0200000000000	-10.743686731475
3.0300000000000	-10.861970669175
3.0400000000000	-10.980736531481
3.0500000000000	-11.099971241279
3.0600000000000	-11.219660924485
3.0700000000000	-11.339790859736
3.0800000000000	-11.460345425709
3.0900000000000	-11.581308046019
3.1000000000000	-11.702661131676
3.1100000000000	-11.824386021064
3.1200000000000	-11.946462917460
3.1300000000000	-12.068870824077
3.1400000000000	-12.191587476680
3.1500000000000	-12.314589273807
3.1600000000000	-12.437851204693
3.1700000000000	-12.561346774967
3.1800000000000	-12.685047930285
3.1900000000000	-12.808924978050
3.2000000000000	-12.932946507440
3.2100000000000	-13.057079307987
3.2200000000000	-13.181288287024
3.2300000000000	-13.305536386346
3.2400000000000	-13.429784498517
3.2500000000000	-13.553991383294
3.2600000000000	-13.678113584738
3.2700000000000	-13.802105349632
3.2800000000000	-13.925918547934
3.2900000000000	-14.049502596058
3.3000000000000	-14.172804383873
3.3100000000000	-14.295768206431
3.3200000000000	-14.418335701483
3.3300000000000	-14.540445793998
3.3400000000000	-14.662034648963
3.3500000000000	-14.783035633853
3.3600000000000	-14.903379292259
3.3700000000000	-15.022993330259
3.3800000000000	-15.141802617172
3.3900000000000	-15.259729202430
3.4000000000000	-15.376692350354
3.4100000000000	-15.492608594623
3.4200000000000	-15.607391814279
3.4300000000000	-15.720953333046
3.4400000000000	-15.833202043720
3.4500000000000	-15.944044559269
3.4600000000000	-16.053385392166
3.4700000000000	-16.161127163275
3.4800000000000	-16.267170841395
3.4900000000000	-16.371416014262
3.5000000000000	-16.473761191473
3.5100000000000	-16.574104139396
3.5200000000000	-16.672342247682
3.5300000000000	-16.768372926469
3.5400000000000	-16.862094032841
3.5500000000000	-16.953404324510
3.5600000000000	-17.042203938050
3.5700000000000	-17.128394888422
3.5800000000000	-17.211881585852
3.5900000000000	-17.292571365542
3.6000000000000	-17.370375025095
3.6100000000000	-17.445207364020
3.6200000000000	-17.516987719218
3.6300000000000	-17.585640490028
3.6400000000000	-17.651095646119
3.6500000000000	-17.713289211454
3.6600000000000	-17.772163717546
3.6700000000000	-17.827668619418
3.6800000000000	-17.879760668033
3.6900000000000	-17.928404233420
3.7000000000000	-17.973571573393
3.7100000000000	-18.015243043520
3.7200000000000	-18.053407244898
3.7300000000000	-18.088061107282
3.7400000000000	-18.119209906171
3.7500000000000	-18.146867213568
3.7600000000000	-18.171054783212
3.7700000000000	-18.191802372195
3.7800000000000	-18.209147501883
3.7900000000000	-18.223135162029
3.8000000000000	-18.233817462787
3.8100000000000	-18.241253240072
3.8200000000000	-18.245507620264
3.8300000000000	-18.246651550693
3.8400000000000	-18.244761302581
3.8500000000000	-18.239917953257
3.8600000000000	-18.232206854396
3.8700000000000	-18.221717092877
3.8800000000000	-18.208540950543
3.8900000000000	-18.192773368750
3.9000000000000	-18.174511423113
3.9100000000000	-18.153853813288
3.9200000000000	-18.130900372031
3.9300000000000	-18.105751597175
3.9400000000000	-18.078508209485
3.9500000000000	-18.049270738772
3.9600000000000	-18.018139140019
3.9700000000000	-17.985212440685
3.9800000000000	-17.950588419860
3.9900000000000	-17.914363319433
4.0000000000000	-17.876631587013
4.0100000000000	-17.837485649971
4.0200000000000	-17.797015719666
4.0300000000000	-17.755309624624
4.0400000000000	-17.712452671266
4.0500000000000	-17.668527530587
4.0600000000000	-17.623614149108
4.0700000000000	-17.577789682298
4.0800000000000	-17.531128448690
4.0900000000000	-17.483701902848
4.1000000000000	-17.435578625393
4.1100000000000	-17.386824328341
4.1200000000000	-17.337501874053
4.1300000000000	-17.287671306177
4.1400000000000	-17.237389891046
4.1500000000000	-17.186712168103
4.1600000000000	-17.135690007989
4.1700000000000	-17.084372677080
4.1800000000000	-17.032806907306
4.1900000000000	-16.981036970225
4.2000000000000	-16.929104754406
4.2100000000000	-16.877049845274
4.2200000000000	-16.824909606647
4.2300000000000	-16.772719263309
4.2400000000000	-16.720511983998
4.2500000000000	-16.668318964318
4.2600000000000	-16.616169509100
4.2700000000000	-16.564091113831
4.2800000000000	-16.512109544822
4.2900000000000	-16.460248917836
4.3000000000000	-16.408531774939
4.3100000000000	-16.356979159390
4.3200000000000	-16.305610688423
4.3300000000000	-16.254444623791
4.3400000000000	-16.203497940006
4.3500000000000	-16.152786390189
4.3600000000000	-16.102324569514
4.3700000000000	-16.052125976220
4.3800000000000	-16.002203070187
4.3900000000000	-15.952567329098
4.4000000000000	-15.903229302207
4.4100000000000	-15.854198661755
4.4200000000000	-15.805484252080
4.4300000000000	-15.757094136470
4.4400000000000	-15.709035641826
4.4500000000000	-15.661315401186
4.4600000000000	-15.613939394192
4.4700000000000	-15.566912985559
4.4800000000000	-15.520240961615
4.4900000000000	-15.473927565001
4.5000000000000	-15.427976527579
4.5100000000000	-15.382391101639
4.5200000000000	-15.337174089469
4.5300000000000	-15.292327871358
4.5400000000000	-15.247854432111
4.5500000000000	-15.203755386121
4.5600000000000	-15.160032001099
4.5700000000000	-15.116685220485
4.5800000000000	-15.073715684646
4.5900000000000	-15.031123750879
4.6000000000000	-14.988909512315
4.6100000000000	-14.947072815746
4.6200000000000	-14.905613278462
4.6300000000000	-14.864530304117
4.6400000000000	-14.823823097698
4.6500000000000	-14.783490679639
4.6600000000000	-14.743531899109
4.6700000000000	-14.703945446544
4.6800000000000	-14.664729865440
4.6900000000000	-14.625883563463
4.7000000000000	-14.587404822902
4.7100000000000	-14.549291810509
4.7200000000000	-14.511542586751
4.7300000000000	-14.474155114519
4.7400000000000	-14.437127267307
4.7500000000000	-14.400456836908
4.7600000000000	-14.364141540638
4.7700000000000	-14.328179028127
4.7800000000000	-14.292566887694
4.7900000000000	-14.257302652334
4.8000000000000	-14.222383805330
4.8100000000000	-14.187807785528
4.8200000000000	-14.153571992272
4.8300000000000	-14.119673790037
4.8400000000000	-14.086110512774
4.8500000000000	-14.052879467966
4.8600000000000	-14.019977940442
4.8700000000000	-13.987403195933
4.8800000000000	-13.955152484406
4.8900000000000	-13.923223043177
4.9000000000000	-13.891612099820
4.9100000000000	-13.860316874884
4.9200000000000	-13.829334584428
4.9300000000000	-13.798662442387
4.9400000000000	-13.768297662774
4.9500000000000	-13.738237461734
4.9600000000000	-13.708479059447
4.9700000000000	-13.679019681910
4.9800000000000	-13.649856562581
4.9900000000000	-13.620986943911
5.0000000000000	-13.592408078756
5.0100000000000	-13.564117231696
5.0200000000000	-13.536111680240
5.0300000000000	-13.508388715953
5.0400000000000	-13.480945645479
5.0500000000000	-13.453779791500
5.0600000000000	-13.426888493600
5.0700000000000	-13.400269109066
5.0800000000000	-13.373919013621
5.0900000000000	-13.347835602086
5.1000000000000	-13.322016288990
5.1100000000000	-13.296458509115
5.1200000000000	-13.271159717993
5.1300000000000	-13.246117392355
5.1400000000000	-13.221329030525
5.1500000000000	-13.196792152778
5.1600000000000	-13.172504301653
5.1700000000000	-13.148463042228
5.1800000000000	-13.124665962358
5.1900000000000	-13.101110672883
5.2000000000000	-13.077794807798
5.2100000000000	-13.054716024398
5.2200000000000	-13.031872003393
5.2300000000000	-13.009260449001
5.2400000000000	-12.986879089010
5.2500000000000	-12.964725674822
5.2600000000000	-12.942797981476
5.2700000000000	-12.921093807649
5.2800000000000	-12.899610975642
5.2900000000000	-12.878347331345
5.3000000000000	-12.857300744187
5.3100000000000	-12.836469107076
5.3200000000000	-12.815850336318
5.3300000000000	-12.795442371527
5.3400000000000	-12.775243175528
5.3500000000000	-12.755250734237
5.3600000000000	-12.735463056544
5.3700000000000	-12.715878174179
5.3800000000000	-12.696494141570
5.3900000000000	-12.677309035697
5.4000000000000	-12.658320955936
5.4100000000000	-12.639528023897
5.4200000000000	-12.620928383254
5.4300000000000	-12.602520199574
5.4400000000000	-12.584301660139
5.4500000000000	-12.566270973760
5.4600000000000	-12.548426370594
5.4700000000000	-12.530766101951
5.4800000000000	-12.513288440100
5.4900000000000	-12.495991678078
5.5000000000000	-12.478874129482
5.5100000000000	-12.461934128276
5.5200000000000	-12.445170028586
5.5300000000000	-12.428580204492
5.5400000000000	-12.412163049829
5.5500000000000	-12.395916977973
5.5600000000000	-12.379840421641
5.5700000000000	-12.363931832676
5.5800000000000	-12.348189681844
5.5900000000000	-12.332612458623
5.6000000000000	-12.317198670994
5.6100000000000	-12.301946845236
5.6200000000000	-12.286855525713
5.6300000000000	-12.271923274670
5.6400000000000	-12.257148672025
5.6500000000000	-12.242530315163
5.6600000000000	-12.228066818729
5.6700000000000	-12.213756814428
5.6800000000000	-12.199598950816
5.6900000000000	-12.185591893101
5.7000000000000	-12.171734322942
5.7100000000000	-12.158024938250
5.7200000000000	-12.144462452985
5.7300000000000	-12.131045596965
5.7400000000000	-12.117773115668
5.7500000000000	-12.104643770038
5.7600000000000	-12.091656336292
5.7700000000000	-12.078809605732
5.7800000000000	-12.066102384554
5.7900000000000	-12.053533493662
5.8000000000000	-12.041101768481
5.8100000000000	-12.028806058775
5.8200000000000	-12.016645228464
5.8300000000000	-12.004618155446
5.8400000000000	-11.992723731415
5.8500000000000	-11.980960861689
5.8600000000000	-11.969328465035
5.8700000000000	-11.957825473491
5.8800000000000	-11.946450832205
5.8900000000000	-11.935203499257
5.9000000000000	-11.924082445498
5.9100000000000	-11.913086654383
5.9200000000000	-11.902215121809
5.9300000000000	-11.891466855954
5.9400000000000	-11.880840877115
5.9500000000000	-11.870336217555
5.9600000000000	-11.859951921346
5.9700000000000	-11.849687044215
5.9800000000000	-11.839540653393
5.9900000000000	-11.829511827466
6.0000000000000	-11.819599656226
6.0100000000000	-11.809803240527
6.0200000000000	-11.800121692138
6.0300000000000	-11.790554133603
6.0400000000000	-11.781099698103
6.0500000000000	-11.771757529310
6.0600000000000	-11.762526781261
6.0700000000000	-11.753406618211
6.0800000000000	-11.744396214511
6.0900000000000	-11.735494754468
6.1000000000000	-11.726701432221
6.1100000000000	-11.718015451611
6.1200000000000	-11.709436026053
6.1300000000000	-11.700962378414
6.1400000000000	-11.692593740891
6.1500000000000	-11.684329354885
6.1600000000000	-11.676168470888
6.1700000000000	-11.668110348358
6.1800000000000	-11.660154255608
6.1900000000000	-11.652299469691
6.2000000000000	-11.644545276284
6.2100000000000	-11.636890969576
6.2200000000000	-11.629335852161
6.2300000000000	-11.621879234929
6.2400000000000	-11.614520436957
6.2500000000000	-11.607258785403
6.2600000000000	-11.600093615405
6.2700000000000	-11.593024269975
6.2800000000000	-11.586050099900
6.2900000000000	-11.579170463639
6.3000000000000	-11.572384727229
6.3100000000000	-11.565692264185
6.3200000000000	-11.559092455403
6.3300000000000	-11.552584689069
6.3400000000000	-11.546168360562
6.3500000000000	-11.539842872367
6.3600000000000	-11.533607633978
6.3700000000000	-11.527462061814
6.3800000000000	-11.521405579130
6.3900000000000	-11.515437615927
6.4000000000000	-11.509557608869
6.4100000000000	-11.503765001199
6.4200000000000	-11.498059242654
6.4300000000000	-11.492439789385
6.4400000000000	-11.486906103871
6.4500000000000	-11.481457654846
6.4600000000000	-11.476093917215
6.4700000000000	-11.470814371980
6.4800000000000	-11.465618506159
6.4900000000000	-11.460505812716
6.5000000000000	-11.455475790481
6.5100000000000	-11.450527944079
6.5200000000000	-11.445661783860
6.5300000000000	-11.440876825822
6.5400000000000	-11.436172591545
6.5500000000000	-11.431548608120
6.5600000000000	-11.427004408081
6.5700000000000	-11.422539529334
6.5800000000000	-11.418153515097
6.5900000000000	-11.413845913826
6.6000000000000	-11.409616279158
6.6100000000000	-11.405464169840
6.6200000000000	-11.401389149672
6.6300000000000	-11.397390787440
6.6400000000000	-11.393468656855
6.6500000000000	-11.389622336497
6.6600000000000	-11.385851409749
6.6700000000000	-11.382155464742
6.6800000000000	-11.378534094294
6.6900000000000	-11.374986895855
6.7000000000000	-11.371513471449
6.7100000000000	-11.368113427618
6.7200000000000	-11.364786375368
6.7300000000000	-11.361531930112
6.7400000000000	-11.358349711619
6.7500000000000	-11.355239343958
6.7600000000000	-11.352200455449
6.7700000000000	-11.349232678608
6.7800000000000	-11.346335650098
6.7900000000000	-11.343509010679
6.8000000000000	-11.340752405155
6.8100000000000	-11.338065482329
6.8200000000000	-11.335447894952
6.8300000000000	-11.332899299675
6.8400000000000	-11.330419357003
6.8500000000000	-11.328007731249
6.8600000000000	-11.325664090484
6.8700000000000	-11.323388106496
6.8800000000000	-11.321179454743
6.8900000000000	-11.319037814308
6.9000000000000	-11.316962867857
6.9100000000000	-11.314954301592
6.9200000000000	-11.313011805212
6.9300000000000	-11.311135071871
6.9400000000000	-11.309323798131
6.9500000000000	-11.307577683927
6.9600000000000	-11.305896432522
6.9700000000000	-11.304279750468
6.9800000000000	-11.302727347566
6.9900000000000	-11.301238936827
7.0000000000000	-11.299814234432
7.0100000000000	-11.298452959695
7.0200000000000	-11.297154835023
7.0300000000000	-11.295919585879
7.0400000000000	-11.294746940747
7.0500000000000	-11.293636631091
7.0600000000000	-11.292588391321
7.0700000000000	-11.291601958757
7.0800000000000	-11.290677073592
7.0900000000000	-11.289813478860
7.1000000000000	-11.289010920396
7.1100000000000	-11.288269146804
7.1200000000000	-11.287587909425
7.1300000000000	-11.286966962299
7.1400000000000	-11.286406062134
7.1500000000000	-11.285904968271
7.1600000000000	-11.285463442654
7.1700000000000	-11.285081249794
7.1800000000000	-11.284758156739
7.1900000000000	-11.284493933041
7.2000000000000	-11.284288350725
7.2100000000000	-11.284141184256
7.2200000000000	-11.284052210511
7.2300000000000	-11.284021208744
7.2400000000000	-11.284047960560
7.2500000000000	-11.284132249879
7.2600000000000	-11.284273862913
7.2700000000000	-11.284472588129
7.2800000000000	-11.284728216224
7.2900000000000	-11.285040540095
7.3000000000000	-11.285409354808
7.3100000000000	-11.285834457571
7.3200000000000	-11.286315647705
7.3300000000000	-11.286852726612
7.3400000000000	-11.287445497754
7.3500000000000	-11.288093766618
7.3600000000000	-11.288797340690
7.3700000000000	-11.289556029429
7.3800000000000	-11.290369644239
7.3900000000000	-11.291237998439
7.4000000000000	-11.292160907239
7.4100000000000	-11.293138187710
7.4200000000000	-11.294169658760
7.4300000000000	-11.295255141104
7.4400000000000	-11.296394457240
7.4500000000000	-11.297587431421
7.4600000000000	-11.298833889629
7.4700000000000	-11.300133659549
7.4800000000000	-11.301486570541
7.4900000000000	-11.302892453618
7.5000000000000	-11.304351141413
7.5100000000000	-11.305862468162
7.5200000000000	-11.307426269671
7.5300000000000	-11.309042383292
7.5400000000000	-11.310710647900
7.5500000000000	-11.312430903865
7.5600000000000	-11.314202993025
7.5700000000000	-11.316026758666
7.5800000000000	-11.317902045490
7.5900000000000	-11.319828699593
7.6000000000000	-11.321806568442
7.6100000000000	-11.323835500842
7.6200000000000	-11.325915346921
7.6300000000000	-11.328045958095
7.6400000000000	-11.330227187050
7.6500000000000	-11.332458887712
7.6600000000000	-11.334740915225
7.6700000000000	-11.337073125923
7.6800000000000	-11.339455377306
7.6900000000000	-11.341887528017
7.7000000000000	-11.344369437813
7.7100000000000	-11.346900967540
7.7200000000000	-11.349481979111
7.7300000000000	-11.352112335477
7.7400000000000	-11.354791900602
7.7500000000000	-11.357520539442
7.7600000000000	-11.360298117913
7.7700000000000	-11.363124502869
7.7800000000000	-11.365999562075
7.7900000000000	-11.368923164184
7.8000000000000	-11.371895178705
7.8100000000000	-11.374915475986
7.8200000000000	-11.377983927179
7.8300000000000	-11.381100404221
7.8400000000000	-11.384264779801
7.8500000000000	-11.387476927342
7.8600000000000	-11.390736720965
7.8700000000000	-11.394044035471
7.8800000000000	-11.397398746308
7.8900000000000	-11.400800729549
7.9000000000000	-11.404249861860
7.9100000000000	-11.407746020478
7.9200000000000	-11.411289083179
7.9300000000000	-11.414878928253
7.9400000000000	-11.418515434479
7.9500000000000	-11.422198481089
7.9600000000000	-11.425927947749
7.9700000000000	-11.429703714526
7.9800000000000	-11.433525661859
7.9900000000000	-11.437393670534
8.0000000000000	-11.441307621651
8.0100000000000	-11.445267396598
8.0200000000000	-11.449272877021
8.0300000000000	-11.453323944793
8.0400000000000	-11.457420481987
8.0500000000000	-11.461562370843
8.0600000000000	-11.465749493738
8.0700000000000	-11.469981733160
8.0800000000000	-11.474258971670
8.0900000000000	-11.478581091878
8.1000000000000	-11.482947976407
8.1100000000000	-11.487359507860
8.1200000000000	-11.491815568796
8.1300000000000	-11.496316041688
8.1400000000000	-11.500860808898
8.1500000000000	-11.505449752638
8.1600000000000	-11.510082754943
8.1700000000000	-11.514759697632
8.1800000000000	-11.519480462276
8.1900000000000	-11.524244930167
8.2000000000000	-11.529052982276
8.2100000000000	-11.533904499228
8.2200000000000	-11.538799361255
8.2300000000000	-11.543737448171
8.2400000000000	-11.548718639329
8.2500000000000	-11.553742813586
8.2600000000000	-11.558809849270
8.2700000000000	-11.563919624135
8.2800000000000	-11.569072015329
8.2900000000000	-11.574266899356
8.3000000000000	-11.579504152033
8.3100000000000	-11.584783648455
8.3200000000000	-11.590105262953
8.3300000000000	-11.595468869053
8.3400000000000	-11.600874339441
8.3500000000000	-11.606321545914
8.3600000000000	-11.611810359345
8.3700000000000	-11.617340649638
8.3800000000000	-11.622912285684
8.3900000000000	-11.628525135322
8.4000000000000	-11.634179065291
8.4100000000000	-11.639873941190
8.4200000000000	-11.645609627430
8.4300000000000	-11.651385987190
8.4400000000000	-11.657202882370
8.4500000000000	-11.663060173547
8.4600000000000	-11.668957719925
8.4700000000000	-11.674895379291
8.4800000000000	-11.680873007961
8.4900000000000	-11.686890460737
8.5000000000000	-11.692947590856
8.5100000000000	-11.699044249936
8.5200000000000	-11.705180287930
8.5300000000000	-11.711355553072
8.5400000000000	-11.717569891826
8.5500000000000	-11.723823148832
8.5600000000000	-11.730115166854
8.5700000000000	-11.736445786722
8.5800000000000	-11.742814847284
8.5900000000000	-11.749222185344
8.6000000000000	-11.755667635607
8.6100000000000	-11.762151030624
8.6200000000000	-11.768672200733
8.6300000000000	-11.775230973999
8.6400000000000	-11.781827176156
8.6500000000000	-11.788460630546
8.6600000000000	-11.795131158060
8.6700000000000	-11.801838577073
8.6800000000000	-11.808582703383
8.6900000000000	-11.815363350148
8.7000000000000	-11.822180327819
8.7100000000000	-11.829033444081
8.7200000000000	-11.835922503779
8.7300000000000	-11.842847308857
8.7400000000000	-11.849807658286
