#Parameters = {a=0.5; d=0.035; h=9; p=3; phi=0; r_1=2; r_2=2.7; s=0.2; t=0.2; theta=0; w=12}
#"Wavelength / nm"	"T_Zmax(2),Zmax(1) [Magnitude]"
#-------------------------------------------------
23605705.354331	5.5335174150889e-07
23624307.171001	5.5346377449123e-07
23642938.328076	5.5354669016729e-07
23661598.895028	5.5360059288388e-07
23680288.941548	5.5362559649408e-07
23699008.537549	5.5362182422141e-07
23717757.753165	5.5358940851688e-07
23736536.658749	5.5352849090908e-07
23755345.324881	5.5343922184773e-07
23774183.822363	5.5332176054079e-07
23793052.222222	5.5317627478551e-07
23811950.595711	5.5300294079364e-07
23830879.014308	5.5280194301114e-07
23849837.549722	5.5257347393263e-07
23868826.273885	5.5231773391084e-07
23887845.258964	5.5203493096150e-07
23906894.577352	5.5172528056379e-07
23925974.301676	5.5138900545681e-07
23945084.504792	5.5102633543222e-07
23964225.259792	5.5063750712350e-07
23983396.640000	5.5022276379207e-07
24002598.718975	5.4978235511053e-07
24021831.570513	5.4931653694342e-07
24041095.268645	5.4882557112574e-07
24060389.887640	5.4830972523950e-07
24079715.502008	5.4776927238876e-07
24099072.186495	5.4720449097317e-07
24118460.016090	5.4661566446063e-07
24137879.066023	5.4600308115906e-07
24157329.411765	5.4536703398782e-07
24176811.129032	5.4470782024883e-07
24196324.293785	5.4402574139783e-07
24215868.982229	5.4332110281595e-07
24235445.270816	5.4259421358188e-07
24255053.236246	5.4184538624494e-07
24274692.955466	5.4107493659916e-07
24294364.505673	5.4028318345876e-07
24314067.964315	5.3947044843519e-07
24333803.409091	5.3863705571592e-07
24353570.917953	5.3778333184528e-07
24373370.569106	5.3690960550746e-07
24393202.441009	5.3601620731193e-07
24413066.612378	5.3510346958152e-07
24432963.162184	5.3417172614311e-07
24452892.169657	5.3322131212147e-07
24472853.714286	5.3225256373602e-07
24492847.875817	5.3126581810099e-07
24512874.734260	5.3026141302890e-07
24532934.369885	5.2923968683764e-07
24553026.863227	5.2820097816113e-07
24573152.295082	5.2714562576386e-07
24593310.746514	5.2607396835930e-07
24613502.298851	5.2498634443221e-07
24633727.033689	5.2388309206521e-07
24653985.032895	5.2276454876935e-07
24674276.378601	5.2163105131900e-07
24694601.153213	5.2048293559108e-07
24714959.439406	5.1932053640854e-07
24735351.320132	5.1814418738843e-07
24755776.878613	5.1695422079424e-07
24776236.198347	5.1575096739289e-07
24796729.363110	5.1453475631615e-07
24817256.456954	5.1330591492663e-07
24837817.564209	5.1206476868833e-07
24858412.769486	5.1081164104175e-07
24879042.157676	5.0954685328355e-07
24899705.813953	5.0827072445079e-07
24920403.823774	5.0698357120967e-07
24941136.272879	5.0568570774886e-07
24961903.247294	5.0437744567727e-07
24982704.833333	5.0305909392635e-07
25003541.117598	5.0173095865678e-07
25024412.186978	5.0039334316959e-07
25045318.128655	4.9904654782163e-07
25066259.030100	4.9769086994538e-07
25087234.979079	4.9632660377296e-07
25108246.063652	4.9495404036442e-07
25129292.372171	4.9357346754011e-07
25150373.993289	4.9218516981716e-07
25171491.015953	4.9078942835003e-07
25192643.529412	4.8938652087490e-07
25213831.623213	4.8797672165808e-07
25235055.387205	4.8656030144809e-07
25256314.911542	4.8513752743159e-07
25277610.286678	4.8370866319287e-07
25298941.603376	4.8227396867703e-07
25320308.952703	4.8083370015653e-07
25341712.426035	4.7938811020125e-07
25363152.115059	4.7793744765185e-07
25384628.111770	4.7648195759638e-07
25406140.508475	4.7502188135005e-07
25427689.397795	4.7355745643809e-07
25449274.872666	4.7208891658158e-07
25470897.026338	4.7061649168623e-07
25492555.952381	4.6914040783395e-07
25514251.744681	4.6766088727713e-07
25535984.497445	4.6617814843564e-07
25557754.305200	4.6469240589629e-07
25579561.262799	4.6320387041489e-07
25601405.465414	4.6171274892057e-07
25623287.008547	4.6021924452250e-07
25645205.988024	4.5872355651879e-07
25667162.500000	4.5722588040754e-07
25689156.640960	4.5572640789992e-07
25711188.507719	4.5422532693526e-07
25733258.197425	4.5272282169801e-07
25755365.807560	4.5121907263652e-07
25777511.435942	4.4971425648355e-07
25799695.180723	4.4820854627841e-07
25821917.140396	4.4670211139075e-07
25844177.413793	4.4519511754581e-07
25866476.100086	4.4368772685107e-07
25888813.298791	4.4218009782432e-07
25911189.109767	4.4067238542302e-07
25933603.633218	4.3916474107480e-07
25956056.969697	4.3765731270926e-07
25978549.220104	4.3615024479068e-07
26001080.485690	4.3464367835189e-07
26023650.868056	4.3313775102905e-07
26046260.469157	4.3163259709735e-07
26068909.391304	4.3012834750746e-07
26091597.737163	4.2862512992294e-07
26114325.609756	4.2712306875817e-07
26137093.112467	4.2562228521709e-07
26159900.349040	4.2412289733252e-07
26182747.423581	4.2262502000602e-07
26205634.440559	4.2112876504828e-07
26228561.504812	4.1963424121998e-07
26251528.721541	4.1814155427307e-07
26274536.196319	4.1665080699241e-07
26297584.035088	4.1516209923773e-07
26320672.344162	4.1367552798593e-07
26343801.230228	4.1219118737355e-07
26366970.800352	4.1070916873952e-07
26390181.161972	4.0922956066801e-07
26413432.422907	4.0775244903143e-07
26436724.691358	4.0627791703359e-07
26460058.075905	4.0480604525284e-07
26483432.685512	4.0333691168525e-07
26506848.629531	4.0187059178785e-07
26530306.017699	4.0040715852178e-07
26553804.960142	3.9894668239539e-07
26577345.567376	3.9748923150728e-07
26600927.950311	3.9603487158917e-07
26624552.220249	3.9458366604875e-07
26648218.488889	3.9313567601220e-07
26671926.868327	3.9169096036669e-07
26695677.471060	3.9024957580254e-07
26719470.409982	3.8881157685527e-07
26743305.798394	3.8737701594734e-07
26767183.750000	3.8594594342960e-07
26791104.378910	3.8451840762255e-07
26815067.799642	3.8309445485725e-07
26839074.127126	3.8167412951587e-07
26863123.476703	3.8025747407204e-07
26887215.964126	3.7884452913073e-07
26911351.705566	3.7743533346788e-07
26935530.817610	3.7602992406958e-07
26959753.417266	3.7462833617096e-07
26984019.621962	3.7323060329461e-07
27008329.549550	3.7183675728871e-07
27032683.318305	3.7044682836462e-07
27057081.046931	3.6906084513421e-07
27081522.854562	3.6767883464663e-07
27106008.860759	3.6630082242478e-07
27130539.185520	3.6492683250126e-07
27155113.949275	3.6355688745391e-07
27179733.272892	3.6219100844092e-07
27204397.277677	3.6082921523551e-07
27229106.085377	3.5947152626010e-07
27253859.818182	3.5811795862007e-07
27278658.598726	3.5676852813709e-07
27303502.550091	3.5542324938193e-07
27328391.795807	3.5408213570682e-07
27353326.459854	3.5274519927742e-07
27378306.666667	3.5141245110423e-07
27403332.541133	3.5008390107360e-07
27428404.208600	3.4875955797824e-07
27453521.794872	3.4743942954730e-07
27478685.426214	3.4612352247596e-07
27503895.229358	3.4481184245455e-07
27529151.331497	3.4350439419725e-07
27554453.860294	3.4220118147027e-07
27579802.943882	3.4090220711963e-07
27605198.710866	3.3960747309841e-07
27630641.290323	3.3831698049366e-07
27656130.811808	3.3703072955269e-07
27681667.405355	3.3574871970910e-07
27707251.201479	3.3447094960816e-07
27732882.331175	3.3319741713195e-07
27758560.925926	3.3192811942387e-07
27784287.117702	3.3066305291285e-07
27810061.038961	3.2940221333704e-07
27835882.822656	3.2814559576709e-07
27861752.602230	3.2689319462903e-07
27887670.511628	3.2564500372670e-07
27913636.685289	3.2440101626371e-07
27939651.258155	3.2316122486510e-07
27965714.365672	3.2192562159844e-07
27991826.143791	3.2069419799466e-07
28017986.728972	3.1946694506838e-07
28044196.258185	3.1824385333785e-07
28070454.868914	3.1702491284457e-07
28096762.699157	3.1581011317237e-07
28123119.887430	3.1459944346628e-07
28149526.572770	3.1339289245085e-07
28175982.894737	3.1219044844821e-07
28202488.993415	3.1099209939570e-07
28229045.009416	3.0979783286315e-07
28255651.083883	3.0860763606974e-07
28282307.358491	3.0742149590060e-07
28309013.975449	3.0623939892296e-07
28335771.077505	3.0506133140201e-07
28362578.807947	3.0388727931635e-07
28389437.310606	3.0271722837317e-07
28416346.729858	3.0155116402305e-07
28443307.210626	3.0038907147440e-07
28470318.898386	2.9923093570765e-07
28497381.939163	2.9807674148904e-07
28524496.479543	2.9692647338414e-07
28551662.666667	2.9578011577099e-07
28578880.648236	2.9463765285303e-07
28606150.572519	2.9349906867164e-07
28633472.588348	2.9236434711841e-07
28660846.845124	2.9123347194709e-07
28688273.492823	2.9010642678530e-07
28715752.681992	2.8898319514589e-07
28743284.563758	2.8786376043806e-07
28770869.289827	2.8674810597818e-07
28798507.012488	2.8563621500033e-07
28826197.884615	2.8452807066658e-07
28853942.059673	2.8342365607700e-07
28881739.691715	2.8232295427943e-07
28909590.935391	2.8122594827892e-07
28937495.945946	2.8013262104701e-07
28965454.879227	2.7904295553069e-07
28993467.891683	2.7795693466116e-07
29021535.140368	2.7687454136228e-07
29049656.782946	2.7579575855886e-07
29077832.977692	2.7472056918469e-07
29106063.883495	2.7364895619030e-07
29134349.659864	2.7258090255052e-07
29162690.466926	2.7151639127186e-07
29191086.465433	2.7045540539960e-07
29219537.816764	2.6939792802468e-07
29248044.682927	2.6834394229041e-07
29276607.226562	2.6729343139896e-07
29305225.610948	2.6624637861761e-07
29333900.000000	2.6520276728484e-07
29362630.558276	2.6416258081619e-07
29391417.450980	2.6312580270997e-07
29420260.843965	2.6209241655271e-07
29449160.903733	2.6106240602447e-07
29478117.797443	2.6003575490398e-07
29507131.692913	2.5901244707352e-07
29536202.758621	2.5799246652372e-07
29565331.163708	2.5697579735810e-07
29594517.077986	2.5596242379749e-07
29623760.671937	2.5495233018426e-07
29653062.116716	2.5394550098637e-07
29682421.584158	2.5294192080130e-07
29711839.246779	2.5194157435974e-07
29741315.277778	2.5094444652922e-07
29770849.851043	2.4995052231753e-07
29800443.141153	2.4895978687595e-07
29830095.323383	2.4797222550240e-07
29859806.573705	2.4698782364444e-07
29889577.068794	2.4600656690204e-07
29919406.986028	2.4502844103032e-07
29949296.503496	2.4405343194206e-07
29979245.800000	2.4308152571014e-07
30009255.055055	2.4211270856981e-07
30039324.448898	2.4114696692080e-07
30069454.162487	2.4018428732939e-07
30099644.377510	2.3922465653023e-07
30129895.276382	2.3826806142818e-07
30160207.042254	2.3731448909988e-07
30190579.859013	2.3636392679531e-07
30221013.911290	2.3541636193916e-07
30251509.384460	2.3447178213217e-07
30282066.464646	2.3353017515222e-07
30312685.338726	2.3259152895548e-07
30343366.194332	2.3165583167729e-07
30374109.219858	2.3072307163303e-07
30404914.604462	2.2979323731888e-07
30435782.538071	2.2886631741243e-07
30466713.211382	2.2794230077324e-07
30497706.815870	2.2702117644324e-07
30528763.543788	2.2610293364711e-07
30559883.588175	2.2518756179251e-07
30591067.142857	2.2427505047024e-07
30622314.402451	2.2336538945429e-07
30653625.562372	2.2245856870183e-07
30685000.818833	2.2155457835309e-07
30716440.368852	2.2065340873115e-07
30747944.410256	2.1975505034169e-07
30779513.141684	2.1885949387260e-07
30811146.762590	2.1796673019356e-07
30842845.473251	2.1707675035549e-07
30874609.474768	2.1618954558998e-07
30906438.969072	2.1530510730862e-07
30938334.158927	2.1442342710225e-07
30970295.247934	2.1354449674015e-07
31002322.440538	2.1266830816914e-07
31034415.942029	2.1179485351267e-07
31066575.958549	2.1092412506976e-07
31098802.697095	2.1005611531396e-07
31131096.365524	2.0919081689218e-07
31163457.172557	2.0832822262351e-07
31195885.327784	2.0746832549794e-07
31228381.041667	2.0661111867503e-07
31260944.525547	2.0575659548257e-07
31293575.991649	2.0490474941514e-07
31326275.653083	2.0405557413260e-07
31359043.723849	2.0320906345858e-07
31391880.418848	2.0236521137888e-07
31424785.953878	2.0152401203986e-07
31457760.545645	2.0068545974673e-07
31490804.411765	1.9984954896186e-07
31523917.770768	1.9901627430298e-07
31557100.842105	1.9818563054135e-07
31590353.846154	1.9735761259998e-07
31623677.004219	1.9653221555166e-07
31657070.538543	1.9570943461707e-07
31690534.672304	1.9488926516278e-07
31724069.629630	1.9407170269927e-07
31757675.635593	1.9325674287891e-07
31791352.916225	1.9244438149381e-07
31825101.698514	1.9163461447382e-07
31858922.210414	1.9082743788430e-07
31892814.680851	1.9002284792402e-07
31926779.339723	1.8922084092295e-07
31960816.417910	1.8842141334001e-07
31994926.147279	1.8762456176090e-07
32029108.760684	1.8683028289575e-07
32063364.491979	1.8603857357688e-07
32097693.576017	1.8524943075649e-07
32132096.248660	1.8446285150429e-07
32166572.746781	1.8367883300519e-07
32201123.308271	1.8289737255691e-07
32235748.172043	1.8211846756760e-07
32270447.578041	1.8134211555343e-07
32305221.767241	1.8056831413617e-07
32340070.981661	1.7979706104081e-07
32374995.464363	1.7902835409302e-07
32409995.459459	1.7826219121682e-07
32445071.212121	1.7749857043199e-07
32480222.968581	1.7673748985171e-07
32515450.976139	1.7597894768001e-07
32550755.483170	1.7522294220931e-07
32586136.739130	1.7446947181791e-07
32621594.994559	1.7371853496753e-07
32657130.501089	1.7297013020076e-07
32692743.511450	1.7222425613860e-07
32728434.279476	1.7148091147791e-07
32764203.060109	1.7074009498897e-07
32800050.109409	1.7000180551290e-07
32835975.684556	1.6926604195921e-07
32871980.043860	1.6853280330325e-07
32908063.446762	1.6780208858378e-07
32944226.153846	1.6707389690039e-07
32980468.426843	1.6634822741108e-07
33016790.528634	1.6562507932974e-07
33053192.723264	1.6490445192367e-07
33089675.275938	1.6418634451112e-07
33126238.453039	1.6347075645883e-07
33162882.522124	1.6275768717957e-07
33199607.751938	1.6204713612970e-07
33236414.412417	1.6133910280672e-07
33273302.774695	1.6063358674689e-07
33310273.111111	1.5993058752277e-07
33347325.695217	1.5923010474086e-07
33384460.801782	1.5853213803921e-07
33421678.706800	1.5783668708504e-07
33458979.687500	1.5714375157241e-07
33496364.022346	1.5645333121985e-07
33533831.991051	1.5576542576809e-07
33571383.874580	1.5508003497770e-07
33609019.955157	1.5439715862685e-07
33646740.516274	1.5371679650901e-07
33684545.842697	1.5303894843076e-07
33722436.220472	1.5236361420948e-07
33760411.936937	1.5169079367121e-07
33798473.280722	1.5102048664845e-07
33836620.541761	1.5035269297796e-07
33874854.011299	1.4968741249869e-07
33913173.981900	1.4902464504959e-07
33951580.747452	1.4836439046754e-07
33990074.603175	1.4770664858529e-07
34028655.845630	1.4705141922942e-07
34067324.772727	1.4639870221826e-07
34106081.683732	1.4574849735998e-07
34144926.879271	1.4510080445053e-07
34183860.661345	1.4445562327177e-07
34222883.333333	1.4381295358948e-07
34261995.200000	1.4317279515152e-07
34301196.567506	1.4253514768596e-07
34340487.743414	1.4190001089920e-07
34379869.036697	1.4126738447421e-07
34419340.757750	1.4063726806872e-07
34458903.218391	1.4000966131349e-07
34498556.731876	1.3938456381054e-07
34538301.612903	1.3876197513151e-07
34578138.177624	1.3814189481598e-07
34618066.743649	1.3752432236981e-07
34658087.630058	1.3690925726356e-07
34698201.157407	1.3629669893092e-07
34738407.647740	1.3568664676713e-07
34778707.424594	1.3507910012753e-07
34819100.813008	1.3447405832602e-07
34859588.139535	1.3387152063363e-07
34900169.732247	1.3327148627711e-07
34940845.920746	1.3267395443754e-07
34981617.036173	1.3207892424897e-07
35022483.411215	1.3148639479710e-07
35063445.380117	1.3089636511797e-07
35104503.278689	1.3030883419675e-07
35145657.444314	1.2972380096646e-07
35186908.215962	1.2914126430679e-07
35228255.934195	1.2856122304296e-07
35269700.941176	1.2798367594458e-07
35311243.580683	1.2740862172454e-07
35352884.198113	1.2683605903796e-07
35394623.140496	1.2626598648114e-07
35436460.756501	1.2569840259059e-07
35478397.396450	1.2513330584203e-07
35520433.412322	1.2457069464950e-07
35562569.157770	1.2401056736442e-07
35604804.988124	1.2345292227472e-07
35647141.260404	1.2289775760405e-07
35689578.333333	1.2234507151091e-07
35732116.567342	1.2179486208793e-07
35774756.324582	1.2124712736113e-07
35817497.968937	1.2070186528916e-07
35860341.866029	1.2015907376271e-07
35903288.383234	1.1961875060378e-07
35946337.889688	1.1908089356514e-07
35989490.756303	1.1854550032969e-07
36032747.355769	1.1801256850998e-07
36076108.062575	1.1748209564763e-07
36119573.253012	1.1695407921289e-07
36163143.305187	1.1642851660416e-07
36206818.599034	1.1590540514759e-07
36250599.516324	1.1538474209667e-07
36294486.440678	1.1486652463186e-07
36338479.757576	1.1435074986030e-07
36382579.854369	1.1383741481548e-07
36426787.120292	1.1332651645695e-07
36471101.946472	1.1281805167012e-07
36515524.725944	1.1231201726603e-07
36560055.853659	1.1180840998117e-07
36604695.726496	1.1130722647732e-07
36649444.743276	1.1080846334143e-07
36694303.304774	1.1031211708552e-07
36739271.813725	1.0981818414662e-07
36784350.674847	1.0932666088673e-07
36829540.294840	1.0883754359280e-07
36874841.082411	1.0835082847673e-07
36920253.448276	1.0786651167546e-07
36965777.805179	1.0738458925096e-07
37011414.567901	1.0690505719043e-07
37057164.153276	1.0642791140630e-07
37103026.980198	1.0595314773648e-07
37149003.469641	1.0548076194447e-07
37195094.044665	1.0501074971957e-07
37241299.130435	1.0454310667713e-07
37287619.154229	1.0407782835873e-07
37334054.545455	1.0361491023253e-07
37380605.735661	1.0315434769349e-07
37427273.158552	1.0269613606376e-07
37474057.250000	1.0224027059293e-07
37520958.448060	1.0178674645848e-07
37567977.192982	1.0133555876609e-07
37615113.927227	1.0088670255011e-07
37662369.095477	1.0044017277393e-07
37709743.144654	9.9995964330481e-08
37757236.523929	9.9554072042645e-08
37804849.684741	9.9114490663796e-08
37852583.080808	9.8677214878281e-08
37900437.168142	9.8242239301956e-08
37948412.405063	9.7809558482731e-08
37996509.252218	9.7379166901136e-08
38044728.172589	9.6951058970908e-08
38093069.631512	9.6525229039586e-08
38141534.096692	9.6101671389140e-08
38190122.038217	9.5680380236599e-08
38238833.928571	9.5261349734709e-08
38287670.242656	9.4844573972600e-08
38336631.457801	9.4430046976472e-08
38385718.053777	9.4017762710299e-08
38434930.512821	9.3607715076538e-08
38484269.319641	9.3199897916864e-08
38533734.961440	9.2794305012917e-08
38583327.927928	9.2390930087053e-08
38633048.711340	9.1989766803123e-08
38682897.806452	9.1590808767255e-08
38732875.710594	9.1194049528652e-08
38782982.923674	9.0799482580401e-08
38833219.948187	9.0407101360296e-08
38883587.289235	9.0016899251672e-08
38934085.454545	8.9628869584245e-08
38984714.954486	8.9243005634971e-08
39035476.302083	8.8859300628909e-08
39086370.013038	8.8477747740097e-08
39137396.605744	8.8098340092434e-08
39188556.601307	8.7721070760576e-08
39239850.523560	8.7345932770834e-08
39291278.899083	8.6972919102091e-08
39342842.257218	8.6602022686712e-08
39394541.130092	8.6233236411476e-08
39446376.052632	8.5866553118505e-08
39498347.562582	8.5501965606204e-08
39550456.200528	8.5139466630209e-08
39602702.509908	8.4779048904337e-08
39655087.037037	8.4420705101543e-08
39707610.331126	8.4064427854883e-08
39760272.944297	8.3710209758485e-08
39813075.431607	8.3358043368515e-08
39866018.351064	8.3007921204159e-08
39919102.263648	8.2659835748598e-08
39972327.733333	8.2313779449998e-08
40025695.327103	8.1969744722491e-08
40079205.614973	8.1627723947168e-08
40132859.170013	8.1287709473069e-08
40186656.568365	8.0949693618179e-08
40240598.389262	8.0613668670423e-08
40294685.215054	8.0279626888664e-08
40348917.631225	7.9947560503700e-08
40403296.226415	7.9617461719267e-08
40457821.592443	7.9289322713035e-08
40512494.324324	7.8963135637610e-08
40567315.020298	7.8638892621534e-08
40622284.281843	7.8316585770287e-08
40677402.713704	7.7996207167279e-08
40732670.923913	7.7677748874858e-08
40788089.523810	7.7361202935298e-08
40843659.128065	7.7046561371799e-08
40899380.354707	7.6733816189479e-08
40955253.825137	7.6422959376365e-08
41011280.164159	7.6113982904384e-08
41067460.000000	7.5806878730346e-08
41123793.964335	7.5501638796929e-08
41180282.692308	7.5198255033662e-08
41236926.822558	7.4896719357896e-08
41293726.997245	7.4597023675785e-08
41350683.862069	7.4299159883247e-08
41407798.066298	7.4003119866935e-08
41465070.262794	7.3708895505199e-08
41522501.108033	7.3416478669037e-08
41580091.262136	7.3125861223051e-08
